24.99,0
25.005,-0.081
25.02,-0.013
25.035,0.061
25.05,0.063
25.065,0.077
25.08,0.063
25.095,0.109
25.11,0.076
25.125,-0.006
25.14,-0.015
25.155,-0.021
25.17,-0.029
25.185,0.015
25.2,0.069
25.215,0.08
25.23,0.04
25.245,0.141
25.26,0.158
25.275,0.051
25.29,0.037
25.305,0.018
25.32,0.027
25.335,0.068
25.35,0.116
25.365,0.032
25.38,0.02
25.395,0.048
25.41,-0.016
25.425,-0.007
25.44,0.092
25.455,0.087
25.47,0.029
25.485,0.054
25.5,0.094
25.515,0.047
25.53,0.043
25.545,0.015
25.56,0.053
25.575,0.133
25.59,0.056
25.605,0.033
25.62,0.043
25.635,0.05
25.65,0.025
25.665,0.052
25.68,0.065
25.695,0.06
25.71,0.077
25.725,0.083
25.74,0.078
25.755,-0.017
25.77,-0.081
25.785,0.008
25.8,0.017
25.815,0.039
25.83,0.07
25.845,0.05
25.86,-0.041
25.875,-0.062
25.89,0.013
25.905,0.041
25.92,-0.015
25.935,0.008
25.95,0.05
25.965,0.013
25.98,0
25.995,0.001
26.01,-0.024
26.025,-0.081
26.04,-0.024
26.055,-0.018
26.07,-0.038
26.085,-0.033
26.1,-0.004
26.115,0.054
26.13,0.043
26.145,-0.009
26.16,-0.024
26.175,0.077
26.19,0.069
26.205,0.005
26.22,-0.017
26.235,0.024
26.25,-0.007
26.265,-0.009
26.28,-0.024
26.295,-0.016
26.31,-0.034
26.325,-0.039
26.34,-0.031
26.355,-0.009
26.37,-0.016
26.385,0.037
26.4,-0.025
26.415,-0.08
26.43,-0.051
26.445,-0.005
26.46,-0.016
26.475,-0.053
26.49,-0.04
26.505,0.019
26.52,0.016
26.535,-0.032
26.55,-0.006
26.565,0.023
26.58,-0.047
26.595,-0.05
26.61,-0.064
26.625,-0.065
26.64,-0.001
26.655,0.037
26.67,0
26.685,0.014
26.7,0.007
26.715,0.009
26.73,-0.05
26.745,-0.005
26.76,0.003
26.775,-0.08
26.79,-0.06
26.805,-0.036
26.82,-0.054
26.835,-0.004
26.85,0.045
26.865,0.016
26.88,-0.051
26.895,-0.049
26.91,-0.013
26.925,-0.036
26.94,0.032
26.955,0.029
26.97,-0.008
26.985,-0.045
27,-0.001
27.015,0.016
27.03,-0.022
27.045,-0.023
27.06,-0.029
27.075,-0.044
27.09,-0.007
27.105,-0.028
27.12,-0.016
27.135,-0.01
27.15,-0.052
27.165,-0.053
27.18,0.016
27.195,-0.019
27.21,0.002
27.225,0.012
27.24,-0.02
27.255,-0.08
27.27,-0.036
27.285,-0.063
27.3,-0.054
27.315,-0.034
27.33,-0.027
27.345,-0.027
27.36,-0.048
27.375,-0.013
27.39,-0.038
27.405,-0.033
27.42,0.008
27.435,0.004
27.45,-0.011
27.465,-0.05
27.48,-0.027
27.495,0.029
27.51,-0.013
27.525,-0.042
27.54,-0.063
27.555,-0.073
27.57,-0.051
27.585,0.001
27.6,-0.047
27.615,-0.045
27.63,-0.025
27.645,-0.08
27.66,-0.05
27.675,-0.065
27.69,-0.059
27.705,-0.02
27.72,-0.001
27.735,-0.009
27.75,0.005
27.765,-0.062
27.78,-0.066
27.795,-0.006
27.81,-0.069
27.825,-0.074
27.84,-0.031
27.855,-0.021
27.87,-0.004
27.885,-0.027
27.9,-0.078
27.915,-0.058
27.93,-0.003
27.945,0
27.96,-0.037
27.975,-0.042
27.99,-0.056
28.005,-0.037
28.02,0.017
28.035,0.021
28.05,-0.028
28.065,-0.044
28.08,-0.064
28.095,-0.08
28.11,-0.077
28.125,-0.028
28.14,-0.072
28.155,-0.053
28.17,-0.04
28.185,-0.024
28.2,-0.046
28.215,-0.044
28.23,-0.031
28.245,-0.026
28.26,-0.032
28.275,0.003
28.29,-0.005
28.305,-0.02
28.32,-0.047
28.335,-0.021
28.35,-0.042
28.365,-0.06
28.38,-0.048
28.395,-0.054
28.41,-0.035
28.425,-0.024
28.44,-0.063
28.455,-0.08
28.47,-0.033
28.485,-0.016
28.5,-0.07
28.515,-0.031
28.53,-0.023
28.545,0.001
28.56,-0.051
28.575,-0.076
28.59,-0.063
28.605,-0.034
28.62,-0.035
28.635,-0.042
28.65,-0.032
28.665,-0.055
28.68,-0.052
28.695,-0.041
28.71,-0.047
28.725,-0.038
28.74,-0.035
28.755,-0.06
28.77,-0.08
28.785,-0.065
28.8,-0.025
28.815,-0.057
28.83,-0.064
28.845,0.011
28.86,-0.035
28.875,-0.071
28.89,-0.025
28.905,-0.005
28.92,-0.042
28.935,-0.06
28.95,-0.015
28.965,0.005
28.98,-0.057
28.995,-0.03
29.01,0.009
29.025,0.04
29.04,0.063
29.055,-0.059
29.07,-0.08
29.085,-0.026
29.1,-0.024
29.115,0.034
29.13,0.046
29.145,0.001
29.16,-0.028
29.175,-0.004
29.19,-0.046
29.205,-0.043
29.22,-0.018
29.235,-0.01
29.25,0.037
29.265,0.042
29.28,0.026
29.295,0.006
29.31,0.039
29.325,0.014
29.34,0.005
29.355,0.067
29.37,0.097
29.385,0.17
29.4,0.182
29.415,0.182
29.43,0.245
29.445,0.215
29.46,0.221
29.475,0.247
29.49,0.314
29.505,0.337
29.52,0.419
29.535,0.448
29.55,0.48
29.565,0.553
29.58,0.589
29.595,0.624
29.61,0.651
29.625,0.736
29.64,0.873
29.655,0.899
29.67,0.917
29.685,1.012
29.7,1.075
29.715,1.146
29.73,1.192
29.745,1.252
29.76,1.316
29.775,1.418
29.79,1.506
29.805,1.594
29.82,1.657
29.835,1.692
29.85,1.748
29.865,1.77
29.88,1.871
29.895,1.937
29.91,1.994
29.925,2.02
29.94,2.038
29.955,2.079
29.97,2.117
29.985,2.214
30,2.262
30.015,2.315
30.03,2.325
30.045,2.322
30.06,2.306
30.075,2.271
30.09,2.313
30.105,2.312
30.12,2.328
30.135,2.349
30.15,2.317
30.165,2.286
30.18,2.239
30.195,2.22
30.21,2.187
30.225,2.168
30.24,2.149
30.255,2.092
30.27,2.057
30.285,1.972
30.3,1.909
30.315,1.872
30.33,1.837
30.345,1.731
30.36,1.583
30.375,1.563
30.39,1.552
30.405,1.515
30.42,1.428
30.435,1.393
30.45,1.313
30.465,1.247
30.48,1.182
30.495,1.054
30.51,0.996
30.525,0.953
30.54,0.875
30.555,0.825
30.57,0.767
30.585,0.711
30.6,0.644
30.615,0.57
30.63,0.568
30.645,0.524
30.66,0.514
30.675,0.467
30.69,0.391
30.705,0.302
30.72,0.273
30.735,0.266
30.75,0.229
30.765,0.18
30.78,0.165
30.795,0.161
30.81,0.156
30.825,0.099
30.84,0.075
30.855,0.055
30.87,0.056
30.885,0.064
30.9,0.061
30.915,0.05
30.93,0.067
30.945,0.058
30.96,0.055
30.975,-0.037
30.99,-0.062
31.005,-0.036
31.02,-0.018
31.035,-0.023
31.05,-0.063
31.065,-0.052
31.08,-0.008
31.095,-0.003
31.11,-0.058
31.125,-0.079
31.14,-0.043
31.155,-0.003
31.17,-0.038
31.185,-0.017
31.2,0.018
31.215,-0.03
31.23,-0.033
31.245,0.016
31.26,0.029
31.275,0.011
31.29,-0.002
31.305,-0.055
31.32,-0.052
31.335,-0.045
31.35,-0.026
31.365,-0.048
31.38,-0.079
31.395,-0.062
31.41,-0.044
31.425,-0.014
31.44,0.001
31.455,0.043
31.47,-0.027
31.485,-0.072
31.5,-0.069
31.515,-0.074
31.53,-0.042
31.545,-0.011
31.56,-0.009
31.575,-0.044
31.59,-0.059
31.605,-0.079
31.62,-0.076
31.635,-0.009
31.65,0.022
31.665,-0.013
31.68,-0.023
31.695,-0.013
31.71,0.013
31.725,0.039
31.74,-0.014
31.755,-0.033
31.77,-0.079
31.785,-0.053
31.8,-0.058
31.815,-0.057
31.83,0.051
31.845,0.012
31.86,0.001
31.875,0.01
31.89,-0.017
31.905,-0.032
31.92,-0.018
31.935,-0.006
31.95,0.021
31.965,-0.014
31.98,-0.011
31.995,-0.024
32.01,-0.038
32.025,-0.047
32.04,0.025
32.055,0.041
32.07,0.004
32.085,-0.024
32.1,-0.005
32.115,-0.052
32.13,-0.079
32.145,-0.048
32.16,-0.01
32.175,0.031
32.19,0.012
32.205,-0.014
32.22,-0.023
32.235,0.016
32.25,0.035
32.265,-0.041
32.28,-0.064
32.295,-0.034
32.31,-0.019
32.325,-0.01
32.34,-0.041
32.355,-0.044
32.37,-0.062
32.385,-0.079
32.4,-0.04
32.415,-0.025
32.43,-0.024
32.445,-0.06
32.46,-0.041
32.475,-0.012
32.49,0.025
32.505,0.014
32.52,-0.037
32.535,-0.075
32.55,-0.057
32.565,0.012
32.58,-0.005
32.595,-0.005
32.61,-0.062
32.625,-0.035
32.64,-0.001
32.655,-0.019
32.67,-0.035
32.685,0.02
32.7,0.026
32.715,0.003
32.73,-0.028
32.745,-0.005
32.76,-0.033
32.775,-0.037
32.79,-0.079
32.805,-0.057
32.82,-0.047
32.835,-0.031
32.85,-0.004
32.865,0.011
32.88,0.012
32.895,0.006
32.91,-0.042
32.925,-0.034
32.94,-0.014
32.955,-0.038
32.97,-0.066
32.985,-0.079
33,-0.071
33.015,-0.068
33.03,-0.071
33.045,-0.013
33.06,0.026
33.075,-0.015
33.09,-0.068
33.105,-0.014
33.12,-0.051
33.135,-0.065
33.15,-0.021
33.165,-0.026
33.18,-0.054
33.195,-0.057
33.21,-0.068
33.225,-0.035
33.24,-0.039
33.255,-0.021
33.27,-0.045
33.285,-0.058
33.3,-0.058
33.315,-0.048
33.33,-0.006
33.345,-0.028
33.36,0.011
33.375,0.015
33.39,-0.037
33.405,-0.049
33.42,-0.011
33.435,-0.028
33.45,-0.042
33.465,-0.072
33.48,-0.071
33.495,-0.02
33.51,-0.012
33.525,-0.034
33.54,0.011
33.555,-0.025
33.57,-0.02
33.585,-0.017
33.6,-0.003
33.615,-0.033
33.63,-0.079
33.645,-0.076
33.66,-0.05
33.675,-0.004
33.69,-0.02
33.705,-0.028
33.72,-0.017
33.735,0.015
33.75,0.013
33.765,-0.03
33.78,-0.05
33.795,-0.013
33.81,-0.017
33.825,-0.009
33.84,-0.013
33.855,-0.01
33.87,0.007
33.885,0.018
33.9,0.028
33.915,0.025
33.93,0.036
33.945,0.044
33.96,0.022
33.975,-0.012
33.99,-0.043
34.005,-0.045
34.02,0.016
34.035,0.027
34.05,0.037
34.065,0.015
34.08,0.036
34.095,0.064
34.11,0.069
34.125,0.073
34.14,0.067
34.155,0.051
34.17,0.013
34.185,0.059
34.2,0.112
34.215,0.103
34.23,0.096
34.245,0.166
34.26,0.19
34.275,0.159
34.29,0.122
34.305,0.082
34.32,0.128
34.335,0.117
34.35,0.088
34.365,0.085
34.38,0.139
34.395,0.132
34.41,0.107
34.425,0.169
34.44,0.191
34.455,0.147
34.47,0.112
34.485,0.096
34.5,0.177
34.515,0.247
34.53,0.223
34.545,0.242
34.56,0.225
34.575,0.259
34.59,0.342
34.605,0.37
34.62,0.377
34.635,0.398
34.65,0.493
34.665,0.522
34.68,0.536
34.695,0.59
34.71,0.655
34.725,0.718
34.74,0.801
34.755,0.872
34.77,0.941
34.785,1.047
34.8,1.176
34.815,1.311
34.83,1.405
34.845,1.504
34.86,1.671
34.875,1.807
34.89,1.962
34.905,2.125
34.92,2.31
34.935,2.464
34.95,2.663
34.965,2.84
34.98,3.063
34.995,3.328
35.01,3.511
35.025,3.687
35.04,3.886
35.055,4.105
35.07,4.367
35.085,4.583
35.1,4.857
35.115,5.043
35.13,5.184
35.145,5.412
35.16,5.671
35.175,5.868
35.19,6.062
35.205,6.278
35.22,6.44
35.235,6.568
35.25,6.77
35.265,6.979
35.28,7.095
35.295,7.228
35.31,7.408
35.325,7.544
35.34,7.609
35.355,7.654
35.37,7.766
35.385,7.808
35.4,7.889
35.415,7.907
35.43,7.901
35.445,7.935
35.46,7.939
35.475,7.88
35.49,7.848
35.505,7.803
35.52,7.715
35.535,7.622
35.55,7.471
35.565,7.371
35.58,7.31
35.595,7.176
35.61,7.025
35.625,6.876
35.64,6.762
35.655,6.64
35.67,6.41
35.685,6.171
35.7,6.008
35.715,5.823
35.73,5.693
35.745,5.543
35.76,5.295
35.775,5.088
35.79,4.842
35.805,4.609
35.82,4.424
35.835,4.224
35.85,4.004
35.865,3.775
35.88,3.611
35.895,3.371
35.91,3.166
35.925,3.009
35.94,2.828
35.955,2.612
35.97,2.504
35.985,2.328
36,2.088
36.015,1.932
36.03,1.79
36.045,1.657
36.06,1.524
36.075,1.403
36.09,1.268
36.105,1.127
36.12,1.063
36.135,0.913
36.15,0.837
36.165,0.768
36.18,0.688
36.195,0.639
36.21,0.508
36.225,0.477
36.24,0.434
36.255,0.391
36.27,0.322
36.285,0.253
36.3,0.282
36.315,0.216
36.33,0.197
36.345,0.176
36.36,0.16
36.375,0.143
36.39,0.111
36.405,0.089
36.42,0.097
36.435,0.133
36.45,0.087
36.465,0.067
36.48,0.098
36.495,0.088
36.51,0.133
36.525,0.137
36.54,0.074
36.555,0.101
36.57,0.138
36.585,0.186
36.6,0.173
36.615,0.176
36.63,0.198
36.645,0.194
36.66,0.205
36.675,0.21
36.69,0.225
36.705,0.203
36.72,0.218
36.735,0.198
36.75,0.22
36.765,0.281
36.78,0.267
36.795,0.251
36.81,0.259
36.825,0.283
36.84,0.269
36.855,0.235
36.87,0.285
36.885,0.295
36.9,0.286
36.915,0.278
36.93,0.298
36.945,0.348
36.96,0.343
36.975,0.322
36.99,0.323
37.005,0.298
37.02,0.301
37.035,0.343
37.05,0.369
37.065,0.318
37.08,0.316
37.095,0.295
37.11,0.302
37.125,0.318
37.14,0.308
37.155,0.293
37.17,0.248
37.185,0.233
37.2,0.239
37.215,0.204
37.23,0.228
37.245,0.257
37.26,0.201
37.275,0.192
37.29,0.174
37.305,0.17
37.32,0.174
37.335,0.164
37.35,0.163
37.365,0.164
37.38,0.144
37.395,0.089
37.41,0.109
37.425,0.127
37.44,0.057
37.455,-0.008
37.47,0.009
37.485,0.056
37.5,0.092
37.515,0.078
37.53,0.004
37.545,0.014
37.56,0.073
37.575,0.011
37.59,-0.02
37.605,-0.018
37.62,0.019
37.635,0.013
37.65,0.008
37.665,-0.022
37.68,-0.055
37.695,-0.021
37.71,-0.007
37.725,-0.029
37.74,-0.071
37.755,-0.078
37.77,-0.068
37.785,-0.029
37.8,-0.032
37.815,-0.064
37.83,-0.054
37.845,-0.078
37.86,-0.057
37.875,-0.072
37.89,-0.051
37.905,-0.069
37.92,-0.048
37.935,-0.078
37.95,-0.077
37.965,-0.032
37.98,-0.02
37.995,-0.011
38.01,-0.044
38.025,-0.047
38.04,-0.014
38.055,-0.014
38.07,-0.001
38.085,0.014
38.1,-0.017
38.115,-0.017
38.13,-0.055
38.145,-0.039
38.16,-0.056
38.175,-0.063
38.19,-0.054
38.205,-0.008
38.22,0.018
38.235,-0.011
38.25,-0.032
38.265,-0.048
38.28,-0.044
38.295,-0.076
38.31,-0.078
38.325,-0.057
38.34,-0.071
38.355,-0.069
38.37,-0.073
38.385,-0.055
38.4,-0.016
38.415,0.015
38.43,0.009
38.445,-0.004
38.46,-0.022
38.475,-0.048
38.49,-0.027
38.505,0.014
38.52,-0.036
38.535,-0.056
38.55,0.006
38.565,-0.005
38.58,-0.007
38.595,0.004
38.61,-0.02
38.625,-0.017
38.64,0.004
38.655,0.015
38.67,-0.027
38.685,-0.047
38.7,-0.077
38.715,-0.067
38.73,-0.043
38.745,0.036
38.76,0.02
38.775,-0.013
38.79,-0.07
38.805,-0.078
38.82,-0.073
38.835,-0.03
38.85,-0.009
38.865,-0.012
38.88,-0.026
38.895,-0.07
38.91,-0.061
38.925,-0.048
38.94,-0.052
38.955,-0.014
38.97,0.021
38.985,0.009
39,-0.016
39.015,-0.042
39.03,-0.049
39.045,-0.023
39.06,0.009
39.075,0.042
39.09,0.059
39.105,-0.008
39.12,-0.003
39.135,-0.032
39.15,-0.052
39.165,0.02
39.18,0.061
39.195,0.009
39.21,-0.029
39.225,-0.052
39.24,-0.048
39.255,-0.014
39.27,0.041
39.285,-0.023
39.3,-0.058
39.315,-0.078
39.33,-0.069
39.345,-0.001
39.36,0.008
39.375,-0.011
39.39,0.017
39.405,-0.02
39.42,-0.014
39.435,0.012
39.45,0.001
39.465,0.011
39.48,-0.019
39.495,-0.002
39.51,-0.013
39.525,-0.022
39.54,-0.014
39.555,-0.03
39.57,-0.056
39.585,-0.016
39.6,-0.025
39.615,-0.02
39.63,0.01
39.645,-0.026
39.66,-0.04
39.675,-0.014
39.69,-0.032
39.705,-0.019
39.72,-0.028
39.735,-0.061
39.75,-0.054
39.765,-0.004
39.78,0.006
39.795,-0.044
39.81,-0.012
39.825,-0.03
39.84,-0.023
39.855,0.027
39.87,-0.034
39.885,-0.047
39.9,-0.078
39.915,-0.042
39.93,0.016
39.945,-0.009
39.96,-0.024
39.975,0.031
39.99,0.031
40.005,-0.022
40.02,-0.057
40.035,-0.024
40.05,-0.013
40.065,-0.004
40.08,0.028
40.095,-0.005
40.11,-0.015
40.125,-0.014
40.14,-0.01
40.155,0.007
40.17,-0.005
40.185,-0.048
40.2,-0.047
40.215,-0.041
40.23,-0.011
40.245,0.005
40.26,-0.024
40.275,-0.026
40.29,-0.025
40.305,-0.022
40.32,-0.001
40.335,0.005
40.35,-0.011
40.365,-0.019
40.38,0.002
40.395,0.015
40.41,0.003
40.425,-0.029
40.44,-0.032
40.455,-0.054
40.47,-0.022
40.485,0.032
40.5,0.008
40.515,0.004
40.53,-0.024
40.545,0.004
40.56,0.017
40.575,0.024
40.59,0.016
40.605,-0.021
40.62,0.006
40.635,0.012
40.65,-0.031
40.665,-0.078
40.68,-0.037
40.695,-0.017
40.71,-0.074
40.725,-0.048
40.74,-0.049
40.755,0.003
40.77,0.01
40.785,-0.035
40.8,-0.035
40.815,-0.024
40.83,-0.007
40.845,-0.02
40.86,-0.02
40.875,-0.03
40.89,-0.016
40.905,-0.044
40.92,-0.053
40.935,0.007
40.95,0.054
40.965,0.025
40.98,-0.016
40.995,-0.015
41.01,-0.042
41.025,-0.078
41.04,-0.062
41.055,-0.067
41.07,-0.054
41.085,-0.059
41.1,-0.068
41.115,-0.078
41.13,-0.02
41.145,-0.009
41.16,-0.008
41.175,-0.022
41.19,-0.072
41.205,-0.066
41.22,-0.052
41.235,-0.026
41.25,-0.023
41.265,-0.05
41.28,-0.041
41.295,-0.053
41.31,-0.025
41.325,-0.044
41.34,0.006
41.355,0.042
41.37,0.041
41.385,0.021
41.4,-0.017
41.415,-0.025
41.43,0.004
41.445,0.006
41.46,-0.063
41.475,-0.078
41.49,-0.04
41.505,-0.05
41.52,-0.076
41.535,-0.069
41.55,-0.05
41.565,-0.022
41.58,0.003
41.595,-0.024
41.61,-0.008
41.625,-0.058
41.64,-0.047
41.655,-0.048
41.67,-0.058
41.685,-0.047
41.7,-0.056
41.715,-0.061
41.73,-0.067
41.745,-0.051
41.76,0.025
41.775,0.024
41.79,-0.036
41.805,-0.018
41.82,-0.005
41.835,-0.014
41.85,-0.002
41.865,0.035
41.88,0.023
41.895,-0.007
41.91,-0.023
41.925,-0.012
41.94,-0.03
41.955,-0.078
41.97,-0.061
41.985,-0.028
42,0.001
42.015,0.002
42.03,0.03
42.045,0.046
42.06,0.02
42.075,-0.016
42.09,0.007
42.105,-0.028
42.12,-0.021
42.135,-0.021
42.15,-0.06
42.165,-0.055
42.18,0.032
42.195,0.038
42.21,0.027
42.225,0.016
42.24,0.032
42.255,0.071
42.27,0.077
42.285,0.054
42.3,0.035
42.315,0.076
42.33,0.106
42.345,0.073
42.36,0.031
42.375,0.078
42.39,0.13
42.405,0.191
42.42,0.218
42.435,0.213
42.45,0.185
42.465,0.215
42.48,0.281
42.495,0.298
42.51,0.286
42.525,0.326
42.54,0.367
42.555,0.396
42.57,0.446
42.585,0.46
42.6,0.515
42.615,0.572
42.63,0.571
42.645,0.621
42.66,0.66
42.675,0.652
42.69,0.729
42.705,0.763
42.72,0.816
42.735,0.835
42.75,0.834
42.765,0.878
42.78,0.959
42.795,1.032
42.81,1.035
42.825,1.125
42.84,1.135
42.855,1.181
42.87,1.205
42.885,1.23
42.9,1.331
42.915,1.403
42.93,1.437
42.945,1.455
42.96,1.508
42.975,1.522
42.99,1.55
43.005,1.598
43.02,1.609
43.035,1.611
43.05,1.626
43.065,1.692
43.08,1.681
43.095,1.698
43.11,1.678
43.125,1.642
43.14,1.606
43.155,1.566
43.17,1.609
43.185,1.581
43.2,1.511
43.215,1.467
43.23,1.482
43.245,1.433
43.26,1.37
43.275,1.335
43.29,1.286
43.305,1.222
43.32,1.233
43.335,1.186
43.35,1.09
43.365,1.063
43.38,1.054
43.395,0.997
43.41,0.963
43.425,0.907
43.44,0.846
43.455,0.801
43.47,0.756
43.485,0.685
43.5,0.628
43.515,0.624
43.53,0.582
43.545,0.574
43.56,0.558
43.575,0.498
43.59,0.465
43.605,0.457
43.62,0.459
43.635,0.388
43.65,0.325
43.665,0.277
43.68,0.281
43.695,0.255
43.71,0.198
43.725,0.154
43.74,0.161
43.755,0.196
43.77,0.169
43.785,0.165
43.8,0.158
43.815,0.122
43.83,0.088
43.845,0.054
43.86,0.041
43.875,0.05
43.89,0.051
43.905,0.037
43.92,0.047
43.935,0.05
43.95,0.016
43.965,-0.022
43.98,-0.012
43.995,0.024
44.01,0.012
44.025,-0.032
44.04,-0.018
44.055,-0.023
44.07,-0.053
44.085,-0.039
44.1,-0.039
44.115,0.02
44.13,-0.004
44.145,-0.049
44.16,-0.051
44.175,-0.053
44.19,-0.017
44.205,-0.057
44.22,-0.037
44.235,-0.001
44.25,0.015
44.265,0.005
44.28,-0.042
44.295,-0.077
44.31,-0.021
44.325,-0.016
44.34,-0.063
44.355,-0.061
44.37,-0.016
44.385,-0.015
44.4,0.009
44.415,-0.028
44.43,-0.007
44.445,0
44.46,-0.015
44.475,-0.028
44.49,-0.017
44.505,-0.028
44.52,-0.039
44.535,-0.021
44.55,-0.049
44.565,-0.04
44.58,-0.036
44.595,0.001
44.61,-0.03
44.625,-0.058
44.64,-0.005
44.655,0.012
44.67,-0.034
44.685,-0.019
44.7,-0.028
44.715,-0.077
44.73,-0.058
44.745,-0.033
44.76,-0.039
44.775,-0.028
44.79,-0.022
44.805,-0.048
44.82,-0.052
44.835,-0.042
44.85,-0.023
44.865,-0.001
44.88,-0.031
44.895,-0.005
44.91,0.049
44.925,0.008
44.94,-0.009
44.955,-0.014
44.97,-0.002
44.985,-0.019
45,-0.025
45.015,-0.05
45.03,-0.046
45.045,-0.044
45.06,-0.034
45.075,-0.017
45.09,-0.035
45.105,-0.045
45.12,-0.053
45.135,-0.029
45.15,0.007
45.165,0.008
45.18,-0.022
45.195,-0.077
45.21,-0.028
45.225,0.001
45.24,0.037
45.255,0.008
45.27,-0.017
45.285,-0.017
45.3,0.068
45.315,-0.018
45.33,-0.071
45.345,-0.062
45.36,-0.055
45.375,-0.039
45.39,0.008
45.405,0.01
45.42,-0.05
45.435,-0.057
45.45,-0.018
45.465,-0.054
45.48,-0.06
45.495,-0.038
45.51,-0.031
45.525,-0.035
45.54,-0.008
45.555,0.027
45.57,0.012
45.585,-0.021
45.6,-0.033
45.615,-0.009
45.63,-0.025
45.645,-0.008
45.66,0.012
45.675,-0.005
45.69,-0.011
45.705,-0.037
45.72,-0.018
45.735,0.02
45.75,-0.02
45.765,0.032
45.78,0.02
45.795,0.022
45.81,0.04
45.825,-0.009
45.84,-0.06
45.855,-0.077
45.87,-0.045
45.885,-0.019
45.9,0.03
45.915,0.023
45.93,-0.014
45.945,-0.053
45.96,-0.044
45.975,-0.024
45.99,0.003
46.005,-0.01
46.02,-0.053
46.035,-0.034
46.05,-0.012
46.065,-0.037
46.08,-0.021
46.095,-0.062
46.11,-0.06
46.125,-0.049
46.14,-0.042
46.155,-0.061
46.17,-0.034
46.185,-0.023
46.2,0
46.215,-0.002
46.23,-0.024
46.245,-0.018
46.26,-0.019
46.275,-0.024
46.29,-0.077
46.305,-0.072
46.32,-0.066
46.335,-0.019
46.35,-0.001
46.365,0.011
46.38,0.038
46.395,-0.03
46.41,-0.035
46.425,-0.04
46.44,-0.042
46.455,-0.037
46.47,0.001
46.485,0.005
46.5,-0.045
46.515,-0.058
46.53,-0.073
46.545,-0.014
46.56,-0.02
46.575,-0.052
46.59,-0.043
46.605,-0.055
46.62,-0.07
46.635,-0.044
46.65,-0.042
46.665,-0.028
46.68,-0.021
46.695,-0.017
46.71,-0.048
46.725,-0.015
46.74,-0.02
46.755,-0.077
46.77,-0.02
46.785,0.014
46.8,0.025
46.815,-0.009
46.83,-0.017
46.845,0.01
46.86,-0.019
46.875,0.024
46.89,0.034
46.905,-0.006
46.92,-0.02
46.935,-0.036
46.95,-0.006
46.965,0.024
46.98,-0.002
46.995,0.004
47.01,0.004
47.025,-0.008
47.04,0.036
47.055,0.035
47.07,-0.009
47.085,0.026
47.1,0.046
47.115,0.053
47.13,0.076
47.145,0.054
47.16,0.015
47.175,0.002
47.19,-0.006
47.205,0.016
47.22,-0.021
47.235,-0.077
47.25,-0.022
47.265,0.003
47.28,0.034
47.295,0.018
47.31,-0.005
47.325,0.033
47.34,0.018
47.355,0.033
47.37,0.014
47.385,0.05
47.4,0.013
47.415,-0.036
47.43,0.016
47.445,0.037
47.46,0.013
47.475,0.016
47.49,0.012
47.505,0.04
47.52,0.051
47.535,0.004
47.55,-0.013
47.565,0.025
47.58,0.021
47.595,-0.005
47.61,0.002
47.625,0.008
47.64,0.044
47.655,0.046
47.67,0.041
47.685,0.004
47.7,-0.006
47.715,0.001
47.73,0.011
47.745,-0.004
47.76,-0.039
47.775,0.002
47.79,0.039
47.805,0.025
47.82,0.002
47.835,0.006
47.85,0.039
47.865,0.098
47.88,0.084
47.895,-0.024
47.91,-0.077
47.925,-0.024
47.94,0.036
47.955,0.06
47.97,0.019
47.985,0.002
48,-0.012
48.015,0.025
48.03,-0.011
48.045,-0.048
48.06,0.01
48.075,0.037
48.09,-0.001
48.105,-0.016
48.12,0.011
48.135,-0.035
48.15,-0.041
48.165,-0.004
48.18,-0.013
48.195,-0.025
48.21,-0.037
48.225,-0.04
48.24,-0.053
48.255,-0.016
48.27,0.011
48.285,0.038
48.3,0.056
48.315,0.001
48.33,-0.078
48.345,-0.002
48.36,-0.006
48.375,-0.025
48.39,0.012
48.405,-0.056
48.42,-0.039
48.435,0.016
48.45,-0.002
48.465,-0.039
48.48,-0.032
48.495,-0.033
48.51,-0.032
48.525,0
48.54,-0.015
48.555,-0.015
48.57,-0.018
48.585,-0.049
48.6,-0.032
48.615,-0.016
48.63,-0.028
48.645,-0.045
48.66,-0.002
48.675,0
48.69,0.001
48.705,0.035
48.72,0.007
48.735,-0.029
48.75,0.033
48.765,0.008
48.78,-0.019
48.795,-0.064
48.81,-0.048
48.825,0.003
48.84,-0.006
48.855,-0.031
48.87,-0.002
48.885,-0.008
48.9,-0.018
48.915,-0.023
48.93,-0.017
48.945,0.034
48.96,0.048
48.975,0.053
48.99,0.032
49.005,0.003
49.02,0.026
49.035,-0.019
49.05,-0.076
49.065,-0.049
49.08,-0.016
49.095,-0.021
49.11,0.009
49.125,0.015
49.14,0.002
49.155,0.025
49.17,0.025
49.185,-0.009
49.2,-0.041
49.215,-0.041
49.23,-0.056
49.245,-0.023
49.26,0.004
49.275,-0.018
49.29,-0.033
49.305,-0.016
49.32,-0.019
49.335,0.021
49.35,0.023
49.365,-0.009
49.38,-0.044
49.395,-0.024
49.41,0.003
49.425,-0.028
49.44,-0.034
49.455,0.015
49.47,0.006
49.485,-0.058
49.5,-0.04
49.515,-0.002
49.53,-0.01
49.545,-0.014
49.56,-0.041
49.575,-0.076
49.59,-0.025
49.605,0.019
49.62,0.021
49.635,0.013
49.65,0.001
49.665,-0.007
49.68,-0.007
49.695,-0.021
49.71,-0.013
49.725,-0.046
49.74,-0.031
49.755,-0.028
49.77,-0.035
49.785,-0.026
49.8,-0.004
49.815,-0.033
49.83,0.004
49.845,0.006
49.86,-0.034
49.875,-0.039
49.89,-0.046
49.905,-0.029
49.92,-0.003
49.935,-0.031
49.95,-0.049
49.965,-0.015
49.98,-0.033
49.995,-0.024
50.01,-0.025
50.025,-0.035
50.04,-0.033
50.055,-0.059
50.07,-0.024
50.085,-0.004
50.1,-0.036
50.115,-0.072
50.13,-0.039
50.145,-0.06
50.16,-0.032
50.175,-0.056
50.19,-0.039
50.205,-0.026
50.22,-0.045
50.235,-0.072
50.25,-0.071
50.265,-0.044
50.28,-0.049
50.295,-0.036
50.31,-0.064
50.325,-0.076
50.34,-0.029
50.355,-0.017
50.37,-0.021
50.385,-0.031
50.4,-0.009
50.415,-0.045
50.43,-0.033
50.445,-0.012
50.46,-0.054
50.475,-0.03
50.49,-0.029
50.505,0.014
50.52,-0.026
50.535,-0.035
50.55,-0.028
50.565,-0.025
50.58,-0.058
50.595,-0.036
50.61,0.007
50.625,-0.02
50.64,-0.026
50.655,-0.017
50.67,-0.055
50.685,-0.038
50.7,-0.013
50.715,-0.007
50.73,0.015
50.745,-0.003
50.76,-0.041
50.775,-0.038
50.79,-0.036
50.805,-0.021
50.82,-0.021
50.835,-0.039
50.85,0.017
50.865,0.047
50.88,-0.007
50.895,0.017
50.91,-0.045
50.925,-0.044
50.94,0.023
50.955,0.034
50.97,-0.07
50.985,-0.076
51,-0.048
51.015,-0.003
51.03,-0.005
51.045,-0.039
51.06,-0.075
51.075,-0.038
51.09,0.016
51.105,-0.038
51.12,-0.018
51.135,-0.031
51.15,-0.036
51.165,0.005
51.18,0.023
51.195,-0.028
51.21,-0.003
51.225,-0.024
51.24,-0.072
51.255,-0.059
51.27,-0.042
51.285,-0.045
51.3,-0.041
51.315,-0.037
51.33,-0.031
51.345,-0.045
51.36,-0.068
51.375,-0.053
51.39,-0.052
51.405,-0.033
51.42,-0.011
51.435,-0.067
51.45,-0.059
51.465,0.006
51.48,0.008
51.495,-0.026
51.51,-0.024
51.525,-0.041
51.54,0.003
51.555,-0.012
51.57,-0.022
51.585,-0.054
51.6,-0.047
51.615,-0.034
51.63,-0.018
51.645,-0.05
51.66,-0.076
51.675,-0.053
51.69,-0.049
51.705,-0.004
51.72,0.009
51.735,-0.036
51.75,-0.012
51.765,-0.021
51.78,-0.046
51.795,-0.01
51.81,0.013
51.825,0.042
51.84,0.036
51.855,-0.005
51.87,-0.036
51.885,-0.063
51.9,-0.029
51.915,-0.034
51.93,-0.039
51.945,-0.038
51.96,0.021
51.975,-0.049
51.99,-0.076
52.005,-0.05
52.02,-0.051
52.035,-0.036
52.05,0.007
52.065,0.024
52.08,0.022
52.095,-0.011
52.11,-0.039
52.125,-0.024
52.14,0.016
52.155,-0.002
52.17,-0.02
52.185,-0.032
52.2,-0.049
52.215,0.007
52.23,0.004
52.245,-0.054
52.26,-0.034
52.275,-0.006
52.29,-0.016
52.305,-0.028
52.32,0
52.335,-0.004
52.35,-0.027
52.365,-0.009
52.38,0
52.395,-0.046
52.41,-0.076
52.425,0.027
52.44,0.044
52.455,-0.008
52.47,-0.022
52.485,0.022
52.5,0.063
52.515,0.039
52.53,-0.001
52.545,-0.064
52.56,-0.067
52.575,-0.047
52.59,-0.019
52.605,0.002
52.62,0.038
52.635,-0.013
52.65,-0.06
52.665,-0.071
52.68,-0.007
52.695,0.058
52.71,0.044
52.725,0.019
52.74,-0.004
52.755,0.04
52.77,0.015
52.785,0.009
52.8,0.052
52.815,0.115
52.83,0.11
52.845,0.061
52.86,0.108
52.875,0.12
52.89,0.102
52.905,0.138
52.92,0.141
52.935,0.134
52.95,0.157
52.965,0.217
52.98,0.225
52.995,0.242
53.01,0.261
53.025,0.311
53.04,0.284
53.055,0.281
53.07,0.303
53.085,0.308
53.1,0.314
53.115,0.329
53.13,0.369
53.145,0.419
53.16,0.41
53.175,0.406
53.19,0.479
53.205,0.478
53.22,0.484
53.235,0.483
53.25,0.537
53.265,0.569
53.28,0.553
53.295,0.507
53.31,0.576
53.325,0.57
53.34,0.57
53.355,0.58
53.37,0.604
53.385,0.65
53.4,0.668
53.415,0.647
53.43,0.649
53.445,0.631
53.46,0.588
53.475,0.585
53.49,0.622
53.505,0.638
53.52,0.61
53.535,0.631
53.55,0.637
53.565,0.567
53.58,0.575
53.595,0.6
53.61,0.572
53.625,0.524
53.64,0.533
53.655,0.539
53.67,0.559
53.685,0.535
53.7,0.481
53.715,0.462
53.73,0.409
53.745,0.394
53.76,0.41
53.775,0.384
53.79,0.399
53.805,0.402
53.82,0.363
53.835,0.36
53.85,0.362
53.865,0.3
53.88,0.272
53.895,0.273
53.91,0.268
53.925,0.211
53.94,0.218
53.955,0.228
53.97,0.23
53.985,0.186
54,0.188
54.015,0.193
54.03,0.117
54.045,0.043
54.06,0.064
54.075,0.088
54.09,0.07
54.105,0.07
54.12,0.059
54.135,0.055
54.15,0.086
54.165,0.09
54.18,0.052
54.195,0.015
54.21,-0.01
54.225,-0.029
54.24,-0.04
54.255,-0.005
54.27,0.002
54.285,-0.009
54.3,0.003
54.315,-0.039
54.33,-0.076
54.345,-0.055
54.36,-0.033
54.375,-0.016
54.39,-0.062
54.405,-0.074
54.42,-0.041
54.435,-0.05
54.45,-0.044
54.465,-0.027
54.48,-0.038
54.495,-0.049
54.51,-0.076
54.525,-0.058
54.54,-0.06
54.555,-0.017
54.57,-0.01
54.585,-0.024
54.6,-0.055
54.615,-0.028
54.63,-0.033
54.645,-0.054
54.66,-0.073
54.675,-0.062
54.69,-0.069
54.705,-0.045
54.72,-0.056
54.735,-0.055
54.75,-0.059
54.765,-0.036
54.78,-0.032
54.795,-0.026
54.81,-0.025
54.825,0.002
54.84,0.022
54.855,-0.037
54.87,-0.076
54.885,-0.027
54.9,-0.034
54.915,-0.012
54.93,-0.026
54.945,-0.052
54.96,-0.016
54.975,-0.011
54.99,0.023
55.005,-0.004
55.02,-0.007
55.035,0.01
55.05,0.032
55.065,0.012
55.08,-0.003
55.095,-0.018
55.11,-0.019
55.125,-0.007
55.14,-0.038
55.155,-0.016
55.17,-0.002
55.185,0.025
55.2,0.008
55.215,-0.076
55.23,-0.034
55.245,-0.003
55.26,-0.041
55.275,-0.045
55.29,-0.048
55.305,-0.038
55.32,0.009
55.335,0.013
55.35,-0.016
55.365,-0.005
55.38,0.034
55.395,0.002
55.41,-0.005
55.425,0.023
55.44,-0.006
55.455,-0.046
55.47,-0.038
55.485,0.03
55.5,0.038
55.515,0.037
55.53,0.029
55.545,-0.031
55.56,-0.034
55.575,-0.012
55.59,0.013
55.605,0.052
55.62,0.037
55.635,0.006
55.65,0
55.665,-0.024
55.68,-0.076
55.695,-0.054
55.71,-0.013
55.725,-0.036
55.74,-0.029
55.755,-0.002
55.77,-0.005
55.785,-0.029
55.8,-0.062
55.815,-0.039
55.83,-0.053
55.845,-0.067
55.86,-0.059
55.875,-0.065
55.89,-0.015
55.905,-0.005
55.92,-0.02
55.935,-0.056
55.95,-0.053
55.965,-0.054
55.98,-0.038
55.995,-0.032
56.01,-0.026
56.025,-0.035
56.04,-0.032
56.055,-0.003
56.07,0.027
56.085,-0.002
56.1,0.03
56.115,0.038
56.13,-0.01
56.145,-0.006
56.16,0.054
56.175,0.079
56.19,0.066
56.205,0.085
56.22,0.118
56.235,0.12
56.25,0.116
56.265,0.159
56.28,0.226
56.295,0.218
56.31,0.26
56.325,0.353
56.34,0.367
56.355,0.39
56.37,0.405
56.385,0.393
56.4,0.444
56.415,0.492
56.43,0.532
56.445,0.585
56.46,0.604
56.475,0.675
56.49,0.785
56.505,0.822
56.52,0.878
56.535,0.922
56.55,0.95
56.565,1.042
56.58,1.131
56.595,1.164
56.61,1.183
56.625,1.258
56.64,1.314
56.655,1.364
56.67,1.442
56.685,1.516
56.7,1.505
56.715,1.541
56.73,1.614
56.745,1.662
56.76,1.693
56.775,1.75
56.79,1.815
56.805,1.876
56.82,1.923
56.835,1.979
56.85,2.044
56.865,2.071
56.88,2.065
56.895,2.079
56.91,2.129
56.925,2.169
56.94,2.177
56.955,2.204
56.97,2.261
56.985,2.216
57,2.15
57.015,2.186
57.03,2.172
57.045,2.148
57.06,2.152
57.075,2.188
57.09,2.156
57.105,2.089
57.12,2.047
57.135,2.064
57.15,2.007
57.165,1.99
57.18,1.923
57.195,1.856
57.21,1.887
57.225,1.881
57.24,1.805
57.255,1.75
57.27,1.688
57.285,1.612
57.3,1.609
57.315,1.595
57.33,1.505
57.345,1.38
57.36,1.33
57.375,1.282
57.39,1.241
57.405,1.218
57.42,1.154
57.435,1.036
57.45,0.998
57.465,0.958
57.48,0.885
57.495,0.804
57.51,0.745
57.525,0.74
57.54,0.649
57.555,0.644
57.57,0.58
57.585,0.511
57.6,0.527
57.615,0.474
57.63,0.383
57.645,0.342
57.66,0.323
57.675,0.286
57.69,0.239
57.705,0.189
57.72,0.178
57.735,0.158
57.75,0.162
57.765,0.179
57.78,0.123
57.795,0.064
57.81,0.061
57.825,0.056
57.84,0.045
57.855,0.036
57.87,0.024
57.885,0.005
57.9,-0.039
57.915,-0.02
57.93,0.04
57.945,0.04
57.96,-0.006
57.975,-0.019
57.99,0.003
58.005,-0.02
58.02,-0.035
58.035,-0.027
58.05,-0.05
58.065,-0.066
58.08,-0.075
58.095,-0.072
58.11,-0.004
58.125,-0.019
58.14,-0.058
58.155,-0.038
58.17,-0.025
58.185,-0.01
58.2,-0.019
58.215,-0.005
58.23,-0.01
58.245,-0.036
58.26,-0.06
58.275,-0.02
58.29,-0.015
58.305,-0.061
58.32,-0.061
58.335,-0.022
58.35,-0.044
58.365,-0.031
58.38,-0.033
58.395,-0.052
58.41,-0.023
58.425,-0.021
58.44,-0.025
58.455,-0.075
58.47,-0.04
58.485,-0.042
58.5,-0.043
58.515,-0.025
58.53,0.015
58.545,-0.008
58.56,-0.059
58.575,-0.054
58.59,-0.031
58.605,-0.034
58.62,-0.061
58.635,-0.072
58.65,-0.06
58.665,-0.053
58.68,-0.046
58.695,-0.037
58.71,-0.016
58.725,-0.043
58.74,-0.053
58.755,-0.012
58.77,0.017
58.785,-0.022
58.8,-0.06
58.815,-0.052
58.83,-0.006
58.845,0.019
58.86,-0.007
58.875,-0.008
58.89,-0.034
58.905,-0.012
58.92,0.024
58.935,-0.017
58.95,-0.075
58.965,-0.042
58.98,-0.073
58.995,-0.067
59.01,-0.001
59.025,0.005
59.04,0.029
59.055,-0.018
59.07,-0.075
59.085,-0.005
59.1,0.027
59.115,-0.012
59.13,0.018
59.145,0.023
59.16,0.011
59.175,-0.017
59.19,-0.006
59.205,-0.015
59.22,-0.006
59.235,-0.038
59.25,-0.004
59.265,-0.034
59.28,-0.052
59.295,-0.016
59.31,0.01
59.325,0.009
59.34,-0.012
59.355,-0.008
59.37,0.015
59.385,0.004
59.4,-0.038
59.415,-0.025
59.43,-0.004
59.445,-0.038
59.46,-0.075
59.475,-0.004
59.49,0.028
59.505,0.022
59.52,0.011
59.535,0.01
59.55,0.048
59.565,-0.012
59.58,-0.062
59.595,-0.052
59.61,-0.035
59.625,-0.039
59.64,-0.045
59.655,-0.02
59.67,0.005
59.685,-0.009
59.7,-0.033
59.715,-0.023
59.73,0.011
59.745,-0.022
59.76,-0.016
59.775,-0.006
59.79,-0.022
59.805,-0.047
59.82,-0.018
59.835,-0.026
59.85,-0.006
59.865,-0.02
59.88,-0.03
59.895,-0.034
59.91,-0.029
59.925,-0.061
59.94,-0.021
59.955,0
59.97,-0.05
59.985,-0.049
60,-0.021
60.015,0.004
60.03,-0.01
60.045,-0.036
60.06,-0.052
60.075,-0.011
60.09,-0.008
60.105,-0.045
60.12,0.013
60.135,0.005
60.15,-0.019
60.165,0.076
60.18,0.033
60.195,-0.075
60.21,-0.04
60.225,0.004
60.24,-0.009
60.255,-0.016
60.27,0.01
60.285,0.024
60.3,-0.023
60.315,-0.031
60.33,-0.003
60.345,-0.003
60.36,-0.017
60.375,0.007
60.39,0.03
60.405,-0.008
60.42,0.014
60.435,-0.04
60.45,-0.066
60.465,0.001
60.48,0.003
60.495,-0.015
60.51,-0.004
60.525,0.009
60.54,-0.015
60.555,0.002
60.57,0.008
60.585,0.033
60.6,0.038
60.615,0.035
60.63,-0.014
60.645,-0.075
60.66,-0.03
60.675,0.043
60.69,0.033
60.705,0.032
60.72,0.056
60.735,0.082
60.75,0.018
60.765,-0.014
60.78,0.004
60.795,-0.002
60.81,0.032
60.825,0.029
60.84,0.006
60.855,0.016
60.87,0.026
60.885,-0.008
60.9,-0.039
60.915,-0.066
60.93,0.001
60.945,-0.002
60.96,0.006
60.975,-0.016
60.99,-0.042
61.005,-0.075
61.02,0.008
61.035,0.016
61.05,-0.014
61.065,0.035
61.08,0.008
61.095,-0.045
61.11,-0.032
61.125,-0.031
61.14,-0.03
61.155,0.012
61.17,-0.014
61.185,-0.011
61.2,-0.006
61.215,-0.011
61.23,-0.057
61.245,-0.032
61.26,-0.058
61.275,-0.04
61.29,-0.022
61.305,-0.033
61.32,-0.066
61.335,-0.05
61.35,-0.036
61.365,-0.054
61.38,-0.07
61.395,-0.061
61.41,-0.024
61.425,-0.006
61.44,0.018
61.455,-0.017
61.47,-0.027
61.485,-0.051
61.5,-0.053
61.515,-0.024
61.53,-0.034
61.545,-0.014
61.56,0.009
61.575,0.01
61.59,0.019
61.605,0.018
61.62,0.033
61.635,0.063
61.65,0.032
61.665,0.019
61.68,0.057
61.695,0.067
61.71,0.122
61.725,0.13
61.74,0.147
61.755,0.173
61.77,0.189
61.785,0.174
61.8,0.194
61.815,0.246
61.83,0.282
61.845,0.272
61.86,0.291
61.875,0.378
61.89,0.452
61.905,0.443
61.92,0.461
61.935,0.551
61.95,0.625
61.965,0.677
61.98,0.673
61.995,0.757
62.01,0.832
62.025,0.885
62.04,0.95
62.055,0.963
62.07,1.034
62.085,1.136
62.1,1.208
62.115,1.313
62.13,1.374
62.145,1.41
62.16,1.493
62.175,1.633
62.19,1.673
62.205,1.737
62.22,1.85
62.235,1.901
62.25,2.016
62.265,2.026
62.28,2.097
62.295,2.177
62.31,2.245
62.325,2.284
62.34,2.323
62.355,2.444
62.37,2.53
62.385,2.552
62.4,2.605
62.415,2.669
62.43,2.716
62.445,2.79
62.46,2.841
62.475,2.891
62.49,2.924
62.505,2.965
62.52,2.969
62.535,3.01
62.55,3.06
62.565,3.074
62.58,3.055
62.595,3.06
62.61,3.013
62.625,2.982
62.64,2.995
62.655,3.02
62.67,2.987
62.685,2.944
62.7,2.95
62.715,2.865
62.73,2.848
62.745,2.832
62.76,2.737
62.775,2.654
62.79,2.598
62.805,2.574
62.82,2.49
62.835,2.417
62.85,2.374
62.865,2.341
62.88,2.31
62.895,2.218
62.91,2.162
62.925,2.125
62.94,1.991
62.955,1.899
62.97,1.857
62.985,1.805
63,1.782
63.015,1.657
63.03,1.556
63.045,1.476
63.06,1.392
63.075,1.358
63.09,1.297
63.105,1.213
63.12,1.133
63.135,1.05
63.15,1.009
63.165,0.937
63.18,0.861
63.195,0.849
63.21,0.77
63.225,0.709
63.24,0.69
63.255,0.601
63.27,0.58
63.285,0.544
63.3,0.5
63.315,0.468
63.33,0.427
63.345,0.367
63.36,0.3
63.375,0.233
63.39,0.188
63.405,0.177
63.42,0.198
63.435,0.194
63.45,0.131
63.465,0.093
63.48,0.115
63.495,0.114
63.51,0.079
63.525,0.062
63.54,0.056
63.555,0.049
63.57,0.034
63.585,-0.017
63.6,-0.018
63.615,0.003
63.63,-0.028
63.645,-0.041
63.66,-0.054
63.675,-0.051
63.69,-0.009
63.705,0.011
63.72,-0.012
63.735,-0.053
63.75,-0.064
63.765,-0.053
63.78,-0.055
63.795,-0.059
63.81,-0.06
63.825,-0.033
63.84,-0.013
63.855,0.007
63.87,-0.007
63.885,-0.034
63.9,-0.046
63.915,-0.049
63.93,-0.05
63.945,-0.047
63.96,-0.02
63.975,-0.072
63.99,-0.068
64.005,-0.005
64.02,-0.038
64.035,-0.074
64.05,-0.003
64.065,0.035
64.08,0.018
64.095,-0.029
64.11,-0.011
64.125,0.011
64.14,0.022
64.155,0.014
64.17,-0.063
64.185,-0.032
64.2,-0.028
64.215,0.005
64.23,-0.028
64.245,-0.059
64.26,-0.028
64.275,-0.019
64.29,-0.023
64.305,-0.039
64.32,-0.007
64.335,-0.049
64.35,-0.073
64.365,-0.068
64.38,-0.074
64.395,-0.035
64.41,-0.026
64.425,-0.044
64.44,-0.048
64.455,-0.046
64.47,-0.029
64.485,-0.035
64.5,-0.024
64.515,-0.018
64.53,0.006
64.545,-0.012
64.56,-0.044
64.575,-0.045
64.59,-0.018
64.605,-0.01
64.62,-0.06
64.635,-0.045
64.65,-0.016
64.665,-0.034
64.68,-0.04
64.695,0.016
64.71,0.009
64.725,-0.049
64.74,-0.047
64.755,0.006
64.77,0.005
64.785,-0.036
64.8,-0.05
64.815,-0.05
64.83,-0.049
64.845,-0.028
64.86,-0.017
64.875,-0.074
64.89,-0.068
64.905,-0.028
64.92,0.008
64.935,0.002
64.95,-0.024
64.965,-0.002
64.98,-0.018
64.995,-0.014
65.01,0.012
65.025,-0.008
65.04,-0.019
65.055,0.001
65.07,-0.005
65.085,-0.007
65.1,-0.018
65.115,-0.042
65.13,-0.067
65.145,-0.042
65.16,-0.007
65.175,-0.026
65.19,-0.049
65.205,-0.031
65.22,-0.011
65.235,-0.016
65.25,-0.007
65.265,-0.051
65.28,-0.074
65.295,-0.05
65.31,-0.045
65.325,-0.011
65.34,0.01
65.355,0.017
65.37,-0.012
65.385,-0.035
65.4,-0.024
65.415,-0.048
65.43,-0.057
65.445,-0.036
65.46,-0.061
65.475,-0.052
65.49,0.02
65.505,0.031
65.52,0.028
65.535,-0.003
65.55,-0.03
65.565,0.008
65.58,0.03
65.595,-0.008
65.61,-0.035
65.625,-0.029
65.64,-0.013
65.655,-0.053
65.67,-0.037
65.685,-0.016
65.7,-0.005
65.715,-0.042
65.73,-0.046
65.745,0.003
65.76,0.042
65.775,0.03
65.79,-0.018
65.805,-0.014
65.82,0.047
65.835,0.027
65.85,0.009
65.865,-0.004
65.88,-0.021
65.895,-0.032
65.91,-0.064
65.925,-0.025
65.94,-0.005
65.955,0.001
65.97,-0.006
65.985,-0.023
66,-0.051
66.015,-0.049
66.03,-0.044
66.045,-0.025
66.06,-0.056
66.075,-0.05
66.09,0.002
66.105,-0.011
66.12,0.021
66.135,0.052
66.15,0.01
66.165,0
66.18,-0.021
66.195,-0.007
66.21,-0.013
66.225,-0.071
66.24,-0.046
66.255,0.003
66.27,0.004
66.285,-0.044
66.3,-0.024
66.315,-0.048
66.33,-0.002
66.345,0.006
66.36,0.013
66.375,0.018
66.39,-0.027
66.405,-0.074
66.42,-0.041
66.435,-0.068
66.45,-0.074
66.465,-0.023
66.48,-0.017
66.495,-0.033
66.51,-0.038
66.525,-0.015
66.54,-0.035
66.555,0.002
66.57,0.022
66.585,-0.028
66.6,-0.021
66.615,-0.034
66.63,-0.015
66.645,0.022
66.66,-0.026
66.675,-0.06
66.69,-0.025
66.705,0.005
66.72,-0.026
66.735,-0.024
66.75,-0.031
66.765,-0.052
66.78,-0.009
66.795,0.005
66.81,-0.021
66.825,-0.018
66.84,-0.033
66.855,-0.072
66.87,-0.05
66.885,-0.036
66.9,-0.009
66.915,-0.015
66.93,-0.056
66.945,-0.06
66.96,-0.018
66.975,-0.011
66.99,-0.029
67.005,-0.042
67.02,-0.036
67.035,-0.016
67.05,-0.031
67.065,-0.074
67.08,-0.035
67.095,-0.01
67.11,-0.023
67.125,-0.019
67.14,0.024
67.155,-0.011
67.17,-0.038
67.185,-0.052
67.2,-0.056
67.215,-0.022
67.23,-0.018
67.245,-0.058
67.26,-0.036
67.275,-0.009
67.29,-0.009
67.305,-0.008
67.32,-0.02
67.335,-0.013
67.35,-0.011
67.365,0.017
67.38,-0.017
67.395,-0.064
67.41,-0.074
67.425,-0.074
67.44,-0.017
67.455,-0.003
67.47,0.007
67.485,0
67.5,-0.027
67.515,-0.056
67.53,-0.02
67.545,0.01
67.56,0.022
67.575,0.014
67.59,-0.031
67.605,-0.068
67.62,-0.02
67.635,-0.033
67.65,-0.02
67.665,-0.008
67.68,-0.027
67.695,-0.017
67.71,0.028
67.725,0.02
67.74,-0.006
67.755,-0.009
67.77,-0.033
67.785,-0.044
67.8,-0.024
67.815,-0.063
67.83,-0.055
67.845,-0.009
67.86,-0.006
67.875,0.021
67.89,-0.011
67.905,-0.065
67.92,-0.061
67.935,-0.027
67.95,-0.034
67.965,-0.052
67.98,0
67.995,0.01
68.01,0.011
68.025,-0.011
68.04,0
68.055,-0.023
68.07,-0.074
68.085,-0.006
68.1,-0.012
68.115,0.012
68.13,0.008
68.145,-0.043
68.16,-0.044
68.175,-0.012
68.19,-0.01
68.205,0.032
68.22,-0.009
68.235,-0.005
68.25,0.006
68.265,-0.009
68.28,-0.015
68.295,-0.037
68.31,-0.02
68.325,-0.03
68.34,-0.03
68.355,-0.037
68.37,-0.068
68.385,-0.009
68.4,-0.018
68.415,-0.025
68.43,-0.074
68.445,-0.061
68.46,-0.012
68.475,0.012
68.49,-0.016
68.505,-0.048
68.52,-0.049
68.535,-0.028
68.55,-0.007
68.565,-0.009
68.58,-0.069
68.595,-0.062
68.61,-0.024
68.625,-0.038
68.64,-0.044
68.655,-0.063
68.67,-0.048
68.685,-0.019
68.7,-0.043
68.715,-0.055
68.73,-0.025
68.745,0.022
68.76,0.061
68.775,0.043
68.79,0.025
68.805,0.03
68.82,0.033
68.835,-0.001
68.85,-0.025
68.865,-0.001
68.88,-0.02
68.895,0.002
68.91,0.026
68.925,-0.017
68.94,-0.035
68.955,-0.009
68.97,-0.014
68.985,-0.015
69,-0.009
69.015,-0.045
69.03,-0.03
69.045,-0.004
69.06,-0.028
69.075,-0.007
69.09,0.007
69.105,-0.001
69.12,0.044
69.135,0.045
69.15,0.042
69.165,0.019
69.18,-0.023
69.195,-0.073
69.21,-0.072
69.225,-0.007
69.24,0.042
69.255,0.019
69.27,0.021
69.285,0.028
69.3,0
69.315,0
69.33,0.014
69.345,0.007
69.36,0.039
69.375,0.049
69.39,0.015
69.405,0.032
69.42,0.049
69.435,0.022
69.45,-0.042
69.465,-0.028
69.48,0.037
69.495,0.019
69.51,0.022
69.525,0.048
69.54,0.003
69.555,-0.032
69.57,-0.007
69.585,0.038
69.6,0.03
69.615,0.027
69.63,0.062
69.645,0.074
69.66,0.063
69.675,0.066
69.69,0.05
69.705,0.058
69.72,0.049
69.735,0.02
69.75,-0.005
69.765,0.046
69.78,0.03
69.795,0.04
69.81,0.073
69.825,0.031
69.84,0.016
69.855,0.093
69.87,0.084
69.885,0.08
69.9,0.097
69.915,0.102
69.93,0.112
69.945,0.116
69.96,0.128
69.975,0.107
69.99,0.102
70.005,0.1
70.02,0.114
70.035,0.121
70.05,0.09
70.065,0.125
70.08,0.14
70.095,0.099
70.11,0.052
70.125,0.075
70.14,0.108
70.155,0.123
70.17,0.121
70.185,0.122
70.2,0.095
70.215,0.121
70.23,0.125
70.245,0.146
70.26,0.164
70.275,0.146
70.29,0.16
70.305,0.133
70.32,0.133
70.335,0.196
70.35,0.226
70.365,0.208
70.38,0.192
70.395,0.209
70.41,0.197
70.425,0.235
70.44,0.229
70.455,0.189
70.47,0.23
70.485,0.283
70.5,0.323
70.515,0.341
70.53,0.314
70.545,0.349
70.56,0.335
70.575,0.326
70.59,0.353
70.605,0.38
70.62,0.369
70.635,0.351
70.65,0.345
70.665,0.352
70.68,0.39
70.695,0.403
70.71,0.416
70.725,0.409
70.74,0.403
70.755,0.413
70.77,0.453
70.785,0.478
70.8,0.475
70.815,0.45
70.83,0.432
70.845,0.478
70.86,0.477
70.875,0.518
70.89,0.529
70.905,0.504
70.92,0.52
70.935,0.506
70.95,0.539
70.965,0.571
70.98,0.548
70.995,0.555
71.01,0.568
71.025,0.526
71.04,0.559
71.055,0.588
71.07,0.537
71.085,0.509
71.1,0.548
71.115,0.56
71.13,0.557
71.145,0.591
71.16,0.6
71.175,0.601
71.19,0.636
71.205,0.616
71.22,0.559
71.235,0.585
71.25,0.618
71.265,0.593
71.28,0.556
71.295,0.58
71.31,0.601
71.325,0.599
71.34,0.605
71.355,0.596
71.37,0.58
71.385,0.619
71.4,0.633
71.415,0.639
71.43,0.651
71.445,0.624
71.46,0.593
71.475,0.644
71.49,0.633
71.505,0.667
71.52,0.652
71.535,0.606
71.55,0.623
71.565,0.663
71.58,0.63
71.595,0.592
71.61,0.576
71.625,0.596
71.64,0.626
71.655,0.655
71.67,0.666
71.685,0.659
71.7,0.636
71.715,0.631
71.73,0.658
71.745,0.67
71.76,0.665
71.775,0.638
71.79,0.641
71.805,0.676
71.82,0.661
71.835,0.659
71.85,0.671
71.865,0.687
71.88,0.683
71.895,0.715
71.91,0.737
71.925,0.751
71.94,0.752
71.955,0.737
71.97,0.722
71.985,0.722
72,0.743
72.015,0.768
72.03,0.729
72.045,0.716
72.06,0.774
72.075,0.777
72.09,0.806
72.105,0.803
72.12,0.789
72.135,0.81
72.15,0.842
72.165,0.827
72.18,0.787
72.195,0.815
72.21,0.876
72.225,0.879
72.24,0.875
72.255,0.855
72.27,0.896
72.285,0.915
72.3,0.919
72.315,0.925
72.33,0.916
72.345,0.888
72.36,0.912
72.375,0.95
72.39,0.882
72.405,0.922
72.42,0.982
72.435,0.994
72.45,1.014
72.465,1.014
72.48,0.995
72.495,1.013
72.51,0.993
72.525,1.025
72.54,1.047
72.555,1.019
72.57,1.029
72.585,1.084
72.6,1.086
72.615,1.077
72.63,1.114
72.645,1.129
72.66,1.139
72.675,1.145
72.69,1.156
72.705,1.161
72.72,1.163
72.735,1.177
72.75,1.171
72.765,1.158
72.78,1.164
72.795,1.214
72.81,1.178
72.825,1.214
72.84,1.196
72.855,1.181
72.87,1.256
72.885,1.269
72.9,1.305
72.915,1.309
72.93,1.315
72.945,1.292
72.96,1.293
72.975,1.318
72.99,1.361
73.005,1.346
73.02,1.382
73.035,1.369
73.05,1.364
73.065,1.406
73.08,1.42
73.095,1.439
73.11,1.452
73.125,1.448
73.14,1.454
73.155,1.485
73.17,1.476
73.185,1.521
73.2,1.554
73.215,1.545
73.23,1.546
73.245,1.564
73.26,1.596
73.275,1.656
73.29,1.7
73.305,1.652
73.32,1.653
73.335,1.711
73.35,1.726
73.365,1.751
73.38,1.77
73.395,1.786
73.41,1.804
73.425,1.797
73.44,1.827
73.455,1.88
73.47,1.857
73.485,1.881
73.5,1.982
73.515,2.003
73.53,1.959
73.545,1.956
73.56,1.961
73.575,2.014
73.59,2.062
73.605,2.101
73.62,2.101
73.635,2.148
73.65,2.192
73.665,2.205
73.68,2.21
73.695,2.229
73.71,2.268
73.725,2.295
73.74,2.33
73.755,2.305
73.77,2.339
73.785,2.444
73.8,2.409
73.815,2.454
73.83,2.502
73.845,2.508
73.86,2.475
73.875,2.46
73.89,2.491
73.905,2.575
73.92,2.605
73.935,2.603
73.95,2.607
73.965,2.613
73.98,2.61
73.995,2.64
74.01,2.669
74.025,2.706
74.04,2.725
74.055,2.71
74.07,2.705
74.085,2.736
74.1,2.747
74.115,2.751
74.13,2.796
74.145,2.824
74.16,2.79
74.175,2.792
74.19,2.819
74.205,2.825
74.22,2.858
74.235,2.894
74.25,2.87
74.265,2.847
74.28,2.869
74.295,2.879
74.31,2.918
74.325,2.909
74.34,2.883
74.355,2.929
74.37,2.915
74.385,2.872
74.4,2.874
74.415,2.873
74.43,2.894
74.445,2.915
74.46,2.99
74.475,3.005
74.49,2.963
74.505,2.979
74.52,3.022
74.535,2.999
74.55,2.983
74.565,2.982
74.58,2.999
74.595,2.985
74.61,3.021
74.625,3.094
74.64,3.086
74.655,3.067
74.67,3.088
74.685,3.057
74.7,3.04
74.715,3.101
74.73,3.104
74.745,3.054
74.76,3.094
74.775,3.108
74.79,3.129
74.805,3.179
74.82,3.165
74.835,3.137
74.85,3.169
74.865,3.22
74.88,3.206
74.895,3.203
74.91,3.273
74.925,3.262
74.94,3.257
74.955,3.235
74.97,3.265
74.985,3.294
75,3.197
75.015,3.133
75.03,3.044
75.045,2.967
75.06,2.855
75.075,2.804
75.09,2.807
75.105,2.761
75.12,2.78
75.135,2.757
75.15,2.696
75.165,2.629
75.18,2.635
75.195,2.643
75.21,2.679
75.225,2.636
75.24,2.629
75.255,2.5
75.27,2.456
75.285,2.441
75.3,2.352
75.315,2.44
75.33,2.363
75.345,0
