24.99,24.834
25.005,26.532
25.02,27.511
25.035,27.672
25.05,27.412
25.065,27.324
25.08,28.003
25.095,27.954
25.11,26.921
25.125,26.351
25.14,26.362
25.155,26.5
25.17,26.452
25.185,27.078
25.2,27.367
25.215,26.586
25.23,26.681
25.245,26.451
25.26,26.489
25.275,26.906
25.29,26.953
25.305,26.679
25.32,26.48
25.335,25.774
25.35,26.576
25.365,27.443
25.38,27.585
25.395,27.278
25.41,26.782
25.425,27.061
25.44,27.192
25.455,27.718
25.47,27.306
25.485,27.353
25.5,27.785
25.515,27.431
25.53,27.751
25.545,26.907
25.56,26.132
25.575,26.136
25.59,26.17
25.605,26.216
25.62,27.419
25.635,26.881
25.65,26.429
25.665,26.272
25.68,26.498
25.695,27.122
25.71,27.041
25.725,26.435
25.74,25.813
25.755,26.565
25.77,26.769
25.785,26.664
25.8,26.183
25.815,26.429
25.83,26.68
25.845,26.397
25.86,26.504
25.875,27.065
25.89,26.95
25.905,26.65
25.92,26.379
25.935,26.538
25.95,26.72
25.965,26.698
25.98,26.409
25.995,26.794
26.01,26.81
26.025,25.936
26.04,26.213
26.055,26.726
26.07,26.867
26.085,26.891
26.1,26.545
26.115,26.501
26.13,26.414
26.145,26.047
26.16,26.058
26.175,26.671
26.19,27.007
26.205,26.757
26.22,26.457
26.235,26.913
26.25,26.828
26.265,26.363
26.28,26.223
26.295,26.435
26.31,26.615
26.325,26.835
26.34,25.877
26.355,25.786
26.37,26.419
26.385,26.294
26.4,26.406
26.415,26.307
26.43,26.375
26.445,26.746
26.46,26.57
26.475,25.816
26.49,25.941
26.505,26.202
26.52,26.2
26.535,26.206
26.55,26.03
26.565,25.885
26.58,25.997
26.595,26.072
26.61,25.962
26.625,25.474
26.64,25.952
26.655,26.379
26.67,26.457
26.685,25.857
26.7,25.87
26.715,26.287
26.73,25.967
26.745,25.106
26.76,25.165
26.775,25.765
26.79,26.323
26.805,26.498
26.82,26.784
26.835,26.639
26.85,26.08
26.865,25.543
26.88,25.785
26.895,26.039
26.91,26.122
26.925,25.476
26.94,25.482
26.955,25.956
26.97,25.905
26.985,25.941
27,25.557
27.015,25.71
27.03,25.894
27.045,26.035
27.06,26.104
27.075,26.111
27.09,25.781
27.105,25.735
27.12,25.732
27.135,25.437
27.15,25.852
27.165,26.109
27.18,26.077
27.195,25.652
27.21,25.693
27.225,25.738
27.24,25.703
27.255,25.568
27.27,25.404
27.285,25.269
27.3,25.549
27.315,25.852
27.33,26.2
27.345,26.057
27.36,25.34
27.375,25.499
27.39,25.469
27.405,25.483
27.42,25.913
27.435,25.46
27.45,25.359
27.465,25.531
27.48,25.475
27.495,25.919
27.51,25.736
27.525,25.958
27.54,26.404
27.555,26.038
27.57,25.42
27.585,25.321
27.6,25.497
27.615,25.845
27.63,26.228
27.645,25.829
27.66,25.665
27.675,25.743
27.69,25.527
27.705,25.453
27.72,25.324
27.735,24.594
27.75,24.809
27.765,25.36
27.78,25.642
27.795,25.805
27.81,25.913
27.825,25.854
27.84,25.413
27.855,25.39
27.87,25.808
27.885,25.57
27.9,25.42
27.915,25.353
27.93,24.857
27.945,25.059
27.96,26.137
27.975,25.338
27.99,24.825
28.005,25.213
28.02,26.217
28.035,26.343
28.05,26.356
28.065,25.797
28.08,25.103
28.095,25.315
28.11,25.306
28.125,25.327
28.14,25.125
28.155,25.364
28.17,25.352
28.185,25.533
28.2,25.601
28.215,25.319
28.23,25.49
28.245,25.405
28.26,25.062
28.275,24.866
28.29,24.927
28.305,25.191
28.32,25.374
28.335,25.41
28.35,25.721
28.365,25.891
28.38,25.586
28.395,25.35
28.41,25.504
28.425,25.446
28.44,25.489
28.455,25.614
28.47,25.65
28.485,25.692
28.5,25.552
28.515,25.644
28.53,25.702
28.545,25.766
28.56,25.249
28.575,25.133
28.59,25.069
28.605,25.1
28.62,25.229
28.635,25.844
28.65,25.511
28.665,25.226
28.68,25.157
28.695,24.9
28.71,25.253
28.725,25.51
28.74,25.242
28.755,24.67
28.77,25.629
28.785,25.995
28.8,25.598
28.815,25.285
28.83,25.297
28.845,25.234
28.86,24.896
28.875,25.065
28.89,25.013
28.905,25.128
28.92,24.99
28.935,25.124
28.95,25.348
28.965,25.524
28.98,25.6
28.995,25.559
29.01,25.149
29.025,25.6
29.04,25.893
29.055,26.068
29.07,25.574
29.085,25.67
29.1,25.546
29.115,25.394
29.13,25.123
29.145,25.262
29.16,25.105
29.175,24.97
29.19,25.254
29.205,25.276
29.22,25.807
29.235,25.899
29.25,25.391
29.265,25.225
29.28,25.624
29.295,25.278
29.31,25.272
29.325,25.297
29.34,24.863
29.355,25.35
29.37,25.744
29.385,25.504
29.4,25.273
29.415,25.137
29.43,25.176
29.445,25.631
29.46,25.858
29.475,25.364
29.49,25.181
29.505,25.163
29.52,25.821
29.535,25.728
29.55,25.195
29.565,25.445
29.58,25.857
29.595,25.937
29.61,25.818
29.625,26.085
29.64,26.078
29.655,25.561
29.67,25.725
29.685,25.623
29.7,25.627
29.715,26.638
29.73,26.678
29.745,26.556
29.76,26.717
29.775,26.359
29.79,26.248
29.805,26.397
29.82,27.119
29.835,27.107
29.85,26.878
29.865,27.608
29.88,27.997
29.895,27.727
29.91,28.227
29.925,28.224
29.94,28.121
29.955,29.179
29.97,28.934
29.985,28.275
30,28.294
30.015,28.136
30.03,28.274
30.045,29.159
30.06,28.595
30.075,28.334
30.09,27.992
30.105,28.085
30.12,28.667
30.135,28.711
30.15,28.362
30.165,28.076
30.18,28.277
30.195,28.12
30.21,28.163
30.225,28.645
30.24,28.247
30.255,27.952
30.27,28.172
30.285,27.764
30.3,27.216
30.315,27.55
30.33,27.325
30.345,26.754
30.36,26.969
30.375,27.05
30.39,26.78
30.405,26.659
30.42,27.086
30.435,27.004
30.45,26.47
30.465,25.823
30.48,25.973
30.495,26.434
30.51,25.899
30.525,25.904
30.54,26.029
30.555,25.775
30.57,25.597
30.585,25.368
30.6,25.705
30.615,25.511
30.63,25.409
30.645,25.537
30.66,25.267
30.675,25.102
30.69,24.948
30.705,25
30.72,25.121
30.735,25.257
30.75,25.313
30.765,25.454
30.78,24.72
30.795,24.899
30.81,25.177
30.825,25.138
30.84,24.716
30.855,24.839
30.87,25.041
30.885,24.864
30.9,24.799
30.915,24.531
30.93,25.077
30.945,24.944
30.96,24.807
30.975,25.358
30.99,25.19
31.005,25.164
31.02,25.121
31.035,24.654
31.05,24.72
31.065,24.961
31.08,24.722
31.095,24.755
31.11,24.915
31.125,25.104
31.14,25.159
31.155,24.888
31.17,24.488
31.185,24.627
31.2,24.253
31.215,24.204
31.23,24.398
31.245,24.57
31.26,24.555
31.275,24.304
31.29,24.383
31.305,25.367
31.32,25.153
31.335,24.866
31.35,24.695
31.365,24.333
31.38,24.597
31.395,24.63
31.41,24.62
31.425,24.648
31.44,24.652
31.455,24.563
31.47,24.404
31.485,24.534
31.5,24.938
31.515,24.542
31.53,24.573
31.545,24.789
31.56,24.556
31.575,24.188
31.59,24.06
31.605,23.861
31.62,24.419
31.635,24.923
31.65,25.156
31.665,25.31
31.68,25.33
31.695,24.767
31.71,24.574
31.725,24.749
31.74,24.503
31.755,24.823
31.77,24.782
31.785,24.269
31.8,23.934
31.815,24.085
31.83,24.565
31.845,24.34
31.86,24.39
31.875,24.657
31.89,24.959
31.905,24.512
31.92,24.389
31.935,24.858
31.95,25.12
31.965,25.01
31.98,24.716
31.995,24.298
32.01,24.426
32.025,24.756
32.04,24.491
32.055,24.636
32.07,24.585
32.085,24.404
32.1,23.958
32.115,24.328
32.13,24.578
32.145,24.102
32.16,24.053
32.175,24.089
32.19,24.516
32.205,24.91
32.22,24.517
32.235,24.079
32.25,23.877
32.265,24.008
32.28,24.177
32.295,24.398
32.31,24.676
32.325,24.556
32.34,24.558
32.355,24.413
32.37,24.14
32.385,24.036
32.4,24.114
32.415,24.121
32.43,24.287
32.445,24.344
32.46,24.382
32.475,24.236
32.49,24.016
32.505,24.268
32.52,24.695
32.535,24.235
32.55,24.174
32.565,24.167
32.58,24.398
32.595,24.251
32.61,24.233
32.625,24.292
32.64,24.419
32.655,24.265
32.67,23.966
32.685,23.588
32.7,23.786
32.715,24.556
32.73,24.85
32.745,24.392
32.76,23.982
32.775,24.227
32.79,24.183
32.805,23.868
32.82,24.42
32.835,24.578
32.85,24.344
32.865,24.391
32.88,24.174
32.895,24.374
32.91,24.35
32.925,24.102
32.94,23.737
32.955,24.354
32.97,24.249
32.985,24.368
33,24.043
33.015,23.837
33.03,23.824
33.045,24.154
33.06,24.006
33.075,23.996
33.09,23.939
33.105,24.516
33.12,24.59
33.135,24.346
33.15,24.104
33.165,24.326
33.18,24.133
33.195,24.329
33.21,24.146
33.225,23.861
33.24,24.047
33.255,23.803
33.27,23.339
33.285,23.354
33.3,23.491
33.315,24.059
33.33,23.553
33.345,23.907
33.36,23.973
33.375,24.206
33.39,24.261
33.405,24.336
33.42,24.632
33.435,24.667
33.45,23.882
33.465,23.951
33.48,24.088
33.495,23.967
33.51,24.073
33.525,24.498
33.54,24.222
33.555,23.968
33.57,23.99
33.585,23.989
33.6,23.843
33.615,23.886
33.63,24.274
33.645,24.287
33.66,24.215
33.675,24.149
33.69,24.225
33.705,24.023
33.72,24.212
33.735,24.126
33.75,24.118
33.765,24.071
33.78,24.178
33.795,24.229
33.81,23.964
33.825,23.74
33.84,23.95
33.855,24.235
33.87,24.337
33.885,24.414
33.9,24.011
33.915,24.277
33.93,24.359
33.945,24.121
33.96,24.381
33.975,24.369
33.99,23.78
34.005,24.128
34.02,23.821
34.035,23.663
34.05,23.873
34.065,24.173
34.08,24.288
34.095,24.233
34.11,24.312
34.125,24.495
34.14,24.568
34.155,24.93
34.17,24.992
34.185,24.814
34.2,24.492
34.215,24.97
34.23,24.111
34.245,23.582
34.26,24.185
34.275,24.47
34.29,24.21
34.305,24.075
34.32,24.425
34.335,23.859
34.35,23.881
34.365,24.458
34.38,23.967
34.395,24.141
34.41,24.282
34.425,24.359
34.44,24.201
34.455,24.507
34.47,24.341
34.485,24.711
34.5,24.392
34.515,23.978
34.53,24.252
34.545,24.178
34.56,24.19
34.575,24.437
34.59,24.604
34.605,24.883
34.62,24.693
34.635,24.313
34.65,24.333
34.665,24.597
34.68,25.047
34.695,24.859
34.71,24.28
34.725,24.644
34.74,24.827
34.755,24.839
34.77,24.761
34.785,24.9
34.8,24.712
34.815,24.917
34.83,25.261
34.845,25.249
34.86,25.095
34.875,25.125
34.89,25.431
34.905,25.505
34.92,26.047
34.935,26.434
34.95,26.494
34.965,26.737
34.98,26.793
34.995,26.638
35.01,26.468
35.025,27.492
35.04,27.847
35.055,28.08
35.07,28.257
35.085,28.326
35.1,28.931
35.115,29.103
35.13,29.657
35.145,29.882
35.16,30.55
35.175,30.188
35.19,30.435
35.205,30.979
35.22,31.705
35.235,32.12
35.25,32.418
35.265,33.193
35.28,33.138
35.295,33.595
35.31,33.831
35.325,34.275
35.34,34.337
35.355,34.417
35.37,34.519
35.385,35.335
35.4,35.931
35.415,35.248
35.43,34.783
35.445,35.131
35.46,35.642
35.475,35.846
35.49,35.667
35.505,35.212
35.52,34.941
35.535,34.481
35.55,34.517
35.565,34.213
35.58,33.809
35.595,33.429
35.61,33.59
35.625,33.163
35.64,32.673
35.655,32.626
35.67,31.805
35.685,31.504
35.7,31.155
35.715,30.378
35.73,30.356
35.745,29.836
35.76,29.509
35.775,29.16
35.79,28.993
35.805,28.783
35.82,27.841
35.835,27.848
35.85,27.951
35.865,27.417
35.88,27.215
35.895,26.532
35.91,26.266
35.925,26.536
35.94,26.888
35.955,26.3
35.97,25.881
35.985,25.828
36,25.526
36.015,25.671
36.03,25.573
36.045,24.92
36.06,24.901
36.075,24.333
36.09,24.218
36.105,24.511
36.12,24.206
36.135,24.261
36.15,24.414
36.165,24.366
36.18,24.605
36.195,24.505
36.21,24.088
36.225,23.97
36.24,24.363
36.255,24.106
36.27,23.661
36.285,23.958
36.3,24.024
36.315,23.788
36.33,24.232
36.345,24.112
36.36,23.757
36.375,24.093
36.39,24.076
36.405,24.18
36.42,24.185
36.435,24.12
36.45,23.608
36.465,23.512
36.48,23.376
36.495,23.463
36.51,23.461
36.525,23.732
36.54,23.256
36.555,23.259
36.57,23.799
36.585,24.395
36.6,24.488
36.615,23.917
36.63,23.694
36.645,23.985
36.66,23.725
36.675,23.573
36.69,23.593
36.705,23.57
36.72,23.642
36.735,23.718
36.75,23.941
36.765,23.794
36.78,24.099
36.795,24.151
36.81,23.771
36.825,23.807
36.84,23.755
36.855,23.772
36.87,23.853
36.885,23.925
36.9,23.122
36.915,23.437
36.93,24.437
36.945,23.752
36.96,23.39
36.975,23.665
36.99,24.203
37.005,23.707
37.02,23.852
37.035,24.397
37.05,24.365
37.065,24.35
37.08,24.015
37.095,23.837
37.11,24.063
37.125,23.987
37.14,24.282
37.155,24.22
37.17,23.439
37.185,23.632
37.2,23.816
37.215,23.756
37.23,23.834
37.245,23.736
37.26,23.812
37.275,23.718
37.29,23.68
37.305,23.661
37.32,23.244
37.335,23.229
37.35,23.45
37.365,23.579
37.38,23.722
37.395,23.448
37.41,23.325
37.425,23.491
37.44,23.382
37.455,23.387
37.47,23.483
37.485,23.206
37.5,22.687
37.515,23.349
37.53,23.493
37.545,23.387
37.56,23.201
37.575,22.749
37.59,22.789
37.605,23.136
37.62,23.345
37.635,23.788
37.65,23.523
37.665,22.778
37.68,23.079
37.695,23.193
37.71,23.066
37.725,22.758
37.74,22.555
37.755,22.76
37.77,22.691
37.785,22.969
37.8,22.957
37.815,22.742
37.83,23.413
37.845,23.028
37.86,22.799
37.875,22.907
37.89,22.721
37.905,22.571
37.92,22.807
37.935,22.912
37.95,22.686
37.965,22.892
37.98,23.039
37.995,23.003
38.01,22.571
38.025,23.077
38.04,23.325
38.055,22.817
38.07,22.704
38.085,22.923
38.1,22.702
38.115,22.637
38.13,22.608
38.145,22.765
38.16,22.995
38.175,23.063
38.19,22.853
38.205,23.155
38.22,23.337
38.235,22.834
38.25,22.396
38.265,22.856
38.28,23.253
38.295,22.893
38.31,23.09
38.325,23.213
38.34,22.849
38.355,22.347
38.37,22.568
38.385,22.594
38.4,22.194
38.415,22.356
38.43,22.717
38.445,22.971
38.46,23.278
38.475,22.978
38.49,22.83
38.505,22.496
38.52,22.199
38.535,22.32
38.55,22.911
38.565,22.87
38.58,22.663
38.595,22.97
38.61,23.274
38.625,23.136
38.64,22.886
38.655,22.515
38.67,22.377
38.685,22.859
38.7,22.859
38.715,22.695
38.73,23.13
38.745,23.313
38.76,23.497
38.775,22.893
38.79,22.447
38.805,22.61
38.82,22.494
38.835,22.164
38.85,22.61
38.865,22.833
38.88,22.399
38.895,22.138
38.91,22.162
38.925,22.472
38.94,22.709
38.955,22.74
38.97,22.274
38.985,22.365
39,22.53
39.015,22.249
39.03,21.585
39.045,21.821
39.06,22.421
39.075,22.929
39.09,22.748
39.105,22.909
39.12,23.188
39.135,23.127
39.15,22.861
39.165,22.994
39.18,22.776
39.195,22.546
39.21,22.746
39.225,22.799
39.24,22.575
39.255,22.74
39.27,22.839
39.285,23.027
39.3,22.842
39.315,22.415
39.33,22.18
39.345,21.9
39.36,21.887
39.375,22.359
39.39,22.592
39.405,22.653
39.42,22.611
39.435,22.55
39.45,22.775
39.465,22.78
39.48,22.785
39.495,22.513
39.51,22.036
39.525,22.581
39.54,22.898
39.555,22.057
39.57,22.211
39.585,22.486
39.6,22.757
39.615,22.711
39.63,22.657
39.645,22.693
39.66,22.628
39.675,22.414
39.69,22.608
39.705,22.653
39.72,22.929
39.735,22.348
39.75,22.553
39.765,22.699
39.78,22.228
39.795,21.991
39.81,22.365
39.825,22.712
39.84,22.536
39.855,22.572
39.87,22.177
39.885,22.021
39.9,22.383
39.915,21.882
39.93,22.166
39.945,22.517
39.96,22.512
39.975,22.522
39.99,22.351
40.005,22.64
40.02,22.621
40.035,22.627
40.05,22.821
40.065,22.795
40.08,22.284
40.095,22.33
40.11,22.466
40.125,22.704
40.14,22.562
40.155,22.75
40.17,22.978
40.185,22.275
40.2,21.934
40.215,22.201
40.23,22.467
40.245,22.493
40.26,22.701
40.275,22.297
40.29,22.24
40.305,22.232
40.32,21.93
40.335,22.072
40.35,22.33
40.365,22.369
40.38,22.56
40.395,22.301
40.41,22.299
40.425,22.424
40.44,22.741
40.455,22.865
40.47,22.847
40.485,22.999
40.5,22.742
40.515,22.511
40.53,22.416
40.545,22.544
40.56,22.457
40.575,22.373
40.59,22.453
40.605,22.406
40.62,22.279
40.635,21.937
40.65,21.803
40.665,21.692
40.68,22.363
40.695,22.795
40.71,22.604
40.725,22.366
40.74,22.62
40.755,22.617
40.77,22.483
40.785,21.9
40.8,21.798
40.815,22.411
40.83,22.16
40.845,21.983
40.86,21.816
40.875,21.859
40.89,22.128
40.905,21.923
40.92,21.808
40.935,22.283
40.95,21.96
40.965,21.884
40.98,22.07
40.995,22.197
41.01,21.947
41.025,22.145
41.04,22.438
41.055,22.019
41.07,21.977
41.085,22.326
41.1,22.051
41.115,22.09
41.13,21.848
41.145,21.877
41.16,22.352
41.175,22.466
41.19,22.684
41.205,22.069
41.22,21.834
41.235,22.298
41.25,22.473
41.265,22.897
41.28,22.558
41.295,22.414
41.31,22.389
41.325,22.012
41.34,21.565
41.355,21.785
41.37,22.162
41.385,22.154
41.4,22.482
41.415,21.967
41.43,21.841
41.445,22.301
41.46,22.025
41.475,21.436
41.49,21.857
41.505,22.294
41.52,22.085
41.535,22.38
41.55,22.383
41.565,21.885
41.58,21.909
41.595,21.74
41.61,21.701
41.625,22.239
41.64,22.258
41.655,21.348
41.67,21.525
41.685,22.045
41.7,22.122
41.715,21.895
41.73,21.868
41.745,22.193
41.76,22.203
41.775,22.1
41.79,21.644
41.805,21.485
41.82,22.282
41.835,22.324
41.85,22.463
41.865,22.634
41.88,22.853
41.895,22.155
41.91,22.284
41.925,22.778
41.94,22.58
41.955,22.116
41.97,22.043
41.985,21.991
42,22.128
42.015,22.11
42.03,22.39
42.045,22.392
42.06,21.825
42.075,21.602
42.09,21.54
42.105,21.626
42.12,21.847
42.135,22.1
42.15,21.709
42.165,21.814
42.18,22.165
42.195,22.431
42.21,22.07
42.225,21.998
42.24,22.051
42.255,22.424
42.27,22.34
42.285,21.844
42.3,21.933
42.315,22.354
42.33,22.196
42.345,22.23
42.36,22.036
42.375,21.592
42.39,22.042
42.405,22.613
42.42,22.66
42.435,22.557
42.45,21.991
42.465,22.239
42.48,22.439
42.495,22.464
42.51,22.376
42.525,22.477
42.54,22.264
42.555,22.331
42.57,22.373
42.585,22.764
42.6,22.444
42.615,22.197
42.63,22.438
42.645,22.69
42.66,22.68
42.675,22.307
42.69,22.338
42.705,22.594
42.72,22.735
42.735,22.494
42.75,22.737
42.765,23.323
42.78,23.057
42.795,23.44
42.81,23.044
42.825,22.746
42.84,23.532
42.855,23.329
42.87,23.051
42.885,23.305
42.9,23.476
42.915,23.082
42.93,23.287
42.945,24.502
42.96,24.213
42.975,23.916
42.99,24.027
43.005,24.171
43.02,24.285
43.035,24.303
43.05,24.235
43.065,24.297
43.08,24.126
43.095,24.033
43.11,24.217
43.125,24.027
43.14,23.596
43.155,23.54
43.17,23.661
43.185,23.997
43.2,23.912
43.215,24.006
43.23,24.066
43.245,23.957
43.26,23.503
43.275,23.477
43.29,23.263
43.305,22.821
43.32,22.95
43.335,23.221
43.35,22.949
43.365,22.942
43.38,23.214
43.395,23.337
43.41,23.024
43.425,22.844
43.44,23.043
43.455,22.699
43.47,22.208
43.485,22.39
43.5,22.408
43.515,22.105
43.53,21.954
43.545,22.061
43.56,21.977
43.575,21.803
43.59,21.52
43.605,21.679
43.62,22.1
43.635,22.002
43.65,22.009
43.665,21.832
43.68,21.997
43.695,22.038
43.71,22.095
43.725,22.004
43.74,21.746
43.755,21.454
43.77,21.928
43.785,22.143
43.8,21.715
43.815,21.294
43.83,21.865
43.845,21.565
43.86,21.019
43.875,21.346
43.89,21.674
43.905,21.25
43.92,21.287
43.935,21.549
43.95,21.724
43.965,21.626
43.98,21.518
43.995,21.968
44.01,21.604
44.025,20.865
44.04,21.161
44.055,21.42
44.07,21.428
44.085,21.603
44.1,21.504
44.115,21.255
44.13,21.006
44.145,21.437
44.16,21.769
44.175,21.29
44.19,21.356
44.205,21.259
44.22,21.568
44.235,21.979
44.25,21.44
44.265,21.191
44.28,21.013
44.295,21.117
44.31,20.95
44.325,21.134
44.34,21.097
44.355,21.054
44.37,21.384
44.385,21.201
44.4,21.336
44.415,21.48
44.43,21.862
44.445,21.478
44.46,21.065
44.475,21.159
44.49,21.339
44.505,21.249
44.52,21.245
44.535,21.37
44.55,20.987
44.565,20.995
44.58,20.762
44.595,21.153
44.61,21.505
44.625,21.845
44.64,21.699
44.655,21.234
44.67,21.069
44.685,20.913
44.7,20.948
44.715,21.251
44.73,20.93
44.745,20.828
44.76,20.948
44.775,21.195
44.79,20.869
44.805,20.964
44.82,21.204
44.835,20.799
44.85,20.95
44.865,21.847
44.88,21.119
44.895,20.91
44.91,21.308
44.925,20.986
44.94,21.16
44.955,21.323
44.97,21.176
44.985,21.169
45,21.667
45.015,21.831
45.03,21.334
45.045,21.209
45.06,21.063
45.075,21.352
45.09,21.307
45.105,20.99
45.12,21.453
45.135,21.403
45.15,20.884
45.165,21.289
45.18,21.752
45.195,21.599
45.21,21.451
45.225,20.918
45.24,21.24
45.255,21.051
45.27,21.112
45.285,21.349
45.3,20.9
45.315,20.963
45.33,20.939
45.345,20.657
45.36,20.711
45.375,21.265
45.39,21.471
45.405,21.213
45.42,21.416
45.435,21.172
45.45,20.785
45.465,20.779
45.48,21.094
45.495,20.781
45.51,21.172
45.525,20.976
45.54,20.827
45.555,21.051
45.57,20.923
45.585,20.912
45.6,21.002
45.615,20.766
45.63,21.041
45.645,21.541
45.66,21.096
45.675,21.023
45.69,21.018
45.705,20.892
45.72,20.931
45.735,21.28
45.75,21.359
45.765,21.125
45.78,21.042
45.795,20.843
45.81,20.965
45.825,20.769
45.84,20.587
45.855,21.087
45.87,20.918
45.885,20.609
45.9,21.128
45.915,21.296
45.93,21.328
45.945,20.947
45.96,21.088
45.975,20.919
45.99,20.31
46.005,20.627
46.02,20.725
46.035,20.887
46.05,21.046
46.065,20.705
46.08,20.935
46.095,20.995
46.11,20.723
46.125,20.299
46.14,20.513
46.155,20.956
46.17,21.256
46.185,20.907
46.2,20.772
46.215,20.806
46.23,21.151
46.245,20.818
46.26,20.495
46.275,20.802
46.29,20.622
46.305,20.375
46.32,20.841
46.335,20.863
46.35,20.989
46.365,20.977
46.38,20.584
46.395,20.338
46.41,20.055
46.425,20.799
46.44,21.32
46.455,21.017
46.47,20.691
46.485,20.714
46.5,20.295
46.515,20.169
46.53,20.624
46.545,20.905
46.56,20.871
46.575,21.181
46.59,20.939
46.605,21.161
46.62,21.362
46.635,21.134
46.65,21.142
46.665,21.502
46.68,21.27
46.695,21.231
46.71,21.137
46.725,20.782
46.74,20.685
46.755,20.539
46.77,20.831
46.785,20.839
46.8,21.295
46.815,20.959
46.83,20.946
46.845,21.045
46.86,20.385
46.875,20.427
46.89,20.815
46.905,20.751
46.92,20.586
46.935,20.598
46.95,20.541
46.965,20.282
46.98,20.749
46.995,20.988
47.01,20.804
47.025,20.873
47.04,20.613
47.055,20.453
47.07,20.756
47.085,20.706
47.1,20.94
47.115,21.034
47.13,20.983
47.145,20.841
47.16,20.492
47.175,20.994
47.19,21.13
47.205,20.769
47.22,20.394
47.235,21.066
47.25,21.256
47.265,21.167
47.28,20.76
47.295,20.505
47.31,20.688
47.325,20.762
47.34,20.745
47.355,20.782
47.37,20.385
47.385,20.543
47.4,20.961
47.415,20.55
47.43,20.221
47.445,20.184
47.46,20.351
47.475,20.694
47.49,21.17
47.505,20.902
47.52,20.089
47.535,19.904
47.55,20.27
47.565,20.205
47.58,20.442
47.595,20.341
47.61,20.504
47.625,20.455
47.64,20.471
47.655,20.559
47.67,20.102
47.685,20.321
47.7,20.688
47.715,20.38
47.73,20.681
47.745,20.852
47.76,20.908
47.775,20.686
47.79,20.416
47.805,20.325
47.82,20.234
47.835,20.453
47.85,20.511
47.865,20.119
47.88,20.245
47.895,20.317
47.91,20.388
47.925,20.383
47.94,20.139
47.955,20.482
47.97,20.716
47.985,20.164
48,19.885
48.015,20.153
48.03,20.407
48.045,20.147
48.06,20.545
48.075,20.684
48.09,20.392
48.105,20.641
48.12,20.402
48.135,20.244
48.15,20.347
48.165,19.789
48.18,19.818
48.195,20.1
48.21,20.774
48.225,20.853
48.24,20.694
48.255,20.547
48.27,20.116
48.285,20.09
48.3,20.68
48.315,20.621
48.33,20.3
48.345,20.208
48.36,20.207
48.375,20.188
48.39,20.631
48.405,20.667
48.42,20.383
48.435,20.408
48.45,20.684
48.465,20.582
48.48,20.376
48.495,19.616
48.51,19.564
48.525,19.989
48.54,20.335
48.555,20.488
48.57,20.299
48.585,20.438
48.6,20.256
48.615,20.306
48.63,20.348
48.645,20.333
48.66,20.53
48.675,20.842
48.69,20.632
48.705,20.395
48.72,20.567
48.735,20.163
48.75,20.727
48.765,20.426
48.78,20.021
48.795,19.984
48.81,20.267
48.825,20.344
48.84,20.399
48.855,20.328
48.87,20.389
48.885,20.385
48.9,20.469
48.915,20.307
48.93,20.089
48.945,20.354
48.96,20.545
48.975,20.198
48.99,20.21
49.005,20.045
49.02,20.106
49.035,20.35
49.05,20.182
49.065,20.456
49.08,20.247
49.095,20.293
49.11,20.326
49.125,20.177
49.14,20.465
49.155,20.54
49.17,20.738
49.185,20.265
49.2,20.352
49.215,20.459
49.23,20.465
49.245,20.249
49.26,20
49.275,20.375
49.29,20.698
49.305,20.315
49.32,19.946
49.335,19.872
49.35,19.94
49.365,19.758
49.38,20.142
49.395,20.331
49.41,20.269
49.425,20.294
49.44,20.165
49.455,20.241
49.47,20.171
49.485,20.104
49.5,20.36
49.515,20.399
49.53,19.842
49.545,20.122
49.56,19.794
49.575,20.051
49.59,20.143
49.605,19.793
49.62,19.979
49.635,20.307
49.65,20.626
49.665,20.133
49.68,19.741
49.695,20.149
49.71,20.21
49.725,19.972
49.74,20.485
49.755,20.479
49.77,19.925
49.785,19.752
49.8,20.137
49.815,19.735
49.83,19.876
49.845,20.335
49.86,20.058
49.875,20.162
49.89,20.369
49.905,20.099
49.92,20.08
49.935,19.873
49.95,19.805
49.965,20.105
49.98,20.34
49.995,20.19
50.01,20.105
50.025,20.125
50.04,20.302
50.055,20.243
50.07,19.822
50.085,19.97
50.1,20.278
50.115,20.325
50.13,19.775
50.145,19.606
50.16,19.918
50.175,19.623
50.19,19.636
50.205,20.048
50.22,20.077
50.235,19.822
50.25,19.995
50.265,20.127
50.28,19.893
50.295,19.663
50.31,19.886
50.325,20.112
50.34,20.28
50.355,20.355
50.37,19.894
50.385,20.019
50.4,20.095
50.415,19.712
50.43,19.803
50.445,19.651
50.46,19.737
50.475,20.149
50.49,19.932
50.505,20.271
50.52,20.431
50.535,20.406
50.55,20.405
50.565,20.105
50.58,20.069
50.595,20.386
50.61,19.986
50.625,19.564
50.64,19.921
50.655,20.37
50.67,20.313
50.685,20.024
50.7,19.853
50.715,19.529
50.73,19.971
50.745,19.686
50.76,19.788
50.775,19.82
50.79,19.774
50.805,20.077
50.82,20.148
50.835,20.304
50.85,20.178
50.865,19.726
50.88,20.026
50.895,19.885
50.91,19.305
50.925,19.482
50.94,19.745
50.955,19.922
50.97,19.383
50.985,19.176
51,19.407
51.015,19.92
51.03,19.994
51.045,19.651
51.06,19.767
51.075,19.885
51.09,19.946
51.105,20.256
51.12,19.964
51.135,19.23
51.15,19.397
51.165,19.599
51.18,19.6
51.195,19.798
51.21,19.751
51.225,20.094
51.24,20.315
51.255,19.9
51.27,19.786
51.285,20.123
51.3,19.756
51.315,19.689
51.33,19.471
51.345,19.539
51.36,19.59
51.375,19.576
51.39,19.827
51.405,19.797
51.42,19.592
51.435,19.807
51.45,19.828
51.465,19.81
51.48,19.497
51.495,19.243
51.51,19.91
51.525,19.993
51.54,19.863
51.555,19.693
51.57,20.169
51.585,19.92
51.6,19.695
51.615,19.423
51.63,19.432
51.645,19.807
51.66,19.707
51.675,19.754
51.69,19.795
51.705,19.39
51.72,19.699
51.735,19.898
51.75,19.903
51.765,20.217
51.78,19.871
51.795,19.36
51.81,19.505
51.825,19.945
51.84,20.06
51.855,20.055
51.87,19.768
51.885,19.551
51.9,20.103
51.915,20.521
51.93,20.059
51.945,19.574
51.96,19.618
51.975,19.732
51.99,20.081
52.005,19.846
52.02,19.656
52.035,19.944
52.05,19.828
52.065,19.768
52.08,19.66
52.095,19.609
52.11,19.971
52.125,19.671
52.14,19.477
52.155,19.479
52.17,19.651
52.185,19.879
52.2,19.585
52.215,19.295
52.23,19.257
52.245,19.426
52.26,19.192
52.275,19.064
52.29,19.529
52.305,20.012
52.32,20.045
52.335,19.835
52.35,19.467
52.365,19.765
52.38,19.605
52.395,19.488
52.41,19.487
52.425,19.885
52.44,19.271
52.455,19.743
52.47,19.797
52.485,19.43
52.5,19.56
52.515,19.419
52.53,19.353
52.545,19.615
52.56,19.749
52.575,19.441
52.59,19.086
52.605,19.188
52.62,19.378
52.635,19.638
52.65,19.674
52.665,19.773
52.68,19.733
52.695,19.136
52.71,19.054
52.725,19.678
52.74,19.806
52.755,19.608
52.77,19.267
52.785,19.332
52.8,19.352
52.815,19.958
52.83,20.241
52.845,19.847
52.86,19.749
52.875,19.841
52.89,19.657
52.905,19.738
52.92,19.964
52.935,20.088
52.95,19.992
52.965,19.75
52.98,19.817
52.995,19.601
53.01,19.75
53.025,20.145
53.04,19.941
53.055,19.596
53.07,19.636
53.085,20.021
53.1,20.077
53.115,19.917
53.13,19.765
53.145,19.744
53.16,19.831
53.175,19.877
53.19,20.438
53.205,20.399
53.22,19.712
53.235,20.267
53.25,20.991
53.265,20.739
53.28,20.433
53.295,20.454
53.31,20.678
53.325,20.518
53.34,20.575
53.355,20.505
53.37,20.205
53.385,19.939
53.4,20.401
53.415,20.388
53.43,20.331
53.445,19.953
53.46,20.261
53.475,20.573
53.49,20.406
53.505,20.115
53.52,20.387
53.535,20.459
53.55,20.315
53.565,20.359
53.58,20.249
53.595,20.253
53.61,20.683
53.625,20.603
53.64,19.99
53.655,19.73
53.67,20.295
53.685,20.416
53.7,20.255
53.715,20.453
53.73,20.077
53.745,19.415
53.76,19.646
53.775,19.871
53.79,20.108
53.805,20.145
53.82,20.226
53.835,20.259
53.85,19.81
53.865,19.332
53.88,19.427
53.895,19.59
53.91,19.527
53.925,19.616
53.94,19.663
53.955,19.376
53.97,19.666
53.985,19.836
54,20.085
54.015,19.976
54.03,19.64
54.045,19.7
54.06,19.709
54.075,19.693
54.09,19.487
54.105,19.453
54.12,19.422
54.135,19.468
54.15,19.27
54.165,19.033
54.18,18.94
54.195,19.359
54.21,19.306
54.225,19.348
54.24,19.68
54.255,19.624
54.27,19.377
54.285,19.226
54.3,19.254
54.315,19.316
54.33,19.344
54.345,19.454
54.36,19.401
54.375,19.021
54.39,18.856
54.405,18.773
54.42,19.088
54.435,19.425
54.45,19.599
54.465,18.987
54.48,19.243
54.495,19.216
54.51,19.199
54.525,19.162
54.54,19.033
54.555,19.257
54.57,19.207
54.585,19.184
54.6,19.398
54.615,19.402
54.63,19.233
54.645,19.167
54.66,19.358
54.675,19.555
54.69,19.285
54.705,19.229
54.72,19.207
54.735,18.843
54.75,18.623
54.765,19.01
54.78,19.323
54.795,19.226
54.81,19.044
54.825,19.209
54.84,18.951
54.855,18.799
54.87,18.676
54.885,18.974
54.9,19.461
54.915,19.396
54.93,19.157
54.945,19.046
54.96,19.342
54.975,19.348
54.99,19.652
55.005,19.238
55.02,18.927
55.035,19.378
55.05,19.333
55.065,19.251
55.08,19.075
55.095,18.659
55.11,18.725
55.125,18.846
55.14,19.056
55.155,19.27
55.17,19.07
55.185,18.756
55.2,18.817
55.215,19.241
55.23,19.475
55.245,19.2
55.26,19.066
55.275,18.968
55.29,19.193
55.305,19.212
55.32,19.033
55.335,18.732
55.35,18.962
55.365,19.129
55.38,19.01
55.395,19.172
55.41,19.305
55.425,19.046
55.44,18.512
55.455,18.839
55.47,19.104
55.485,19.308
55.5,19.465
55.515,19.139
55.53,19.036
55.545,19.251
55.56,19.358
55.575,19.522
55.59,19.561
55.605,19.16
55.62,18.825
55.635,18.999
55.65,19.028
55.665,19.447
55.68,19.242
55.695,19.086
55.71,19.461
55.725,19.314
55.74,19.348
55.755,19.596
55.77,19.065
55.785,18.855
55.8,18.868
55.815,19.089
55.83,19.278
55.845,19.113
55.86,19.024
55.875,19.153
55.89,18.838
55.905,18.826
55.92,19.274
55.935,18.685
55.95,18.691
55.965,18.787
55.98,19.185
55.995,19.011
56.01,18.921
56.025,18.903
56.04,18.955
56.055,18.875
56.07,18.907
56.085,19.58
56.1,19.667
56.115,19.267
56.13,19.237
56.145,19.151
56.16,18.831
56.175,18.441
56.19,18.73
56.205,18.926
56.22,19.307
56.235,19.641
56.25,19.52
56.265,19.478
56.28,19.498
56.295,19.137
56.31,19.136
56.325,19.141
56.34,19.135
56.355,19.032
56.37,19.261
56.385,19.491
56.4,19.619
56.415,19.155
56.43,19.193
56.445,19.639
56.46,19.431
56.475,19.527
56.49,19.608
56.505,19.667
56.52,19.208
56.535,19.276
56.55,19.69
56.565,20.076
56.58,20.343
56.595,20.066
56.61,19.94
56.625,20.021
56.64,20.006
56.655,19.92
56.67,20.198
56.685,20.406
56.7,20.673
56.715,20.21
56.73,20.028
56.745,20.615
56.76,21.212
56.775,21.104
56.79,21.362
56.805,21.238
56.82,21.279
56.835,21.357
56.85,21.212
56.865,21.203
56.88,21.725
56.895,21.921
56.91,21.714
56.925,21.639
56.94,21.973
56.955,21.602
56.97,21.414
56.985,21.514
57,21.754
57.015,22.18
57.03,21.766
57.045,21.956
57.06,21.862
57.075,21.398
57.09,21.157
57.105,21.112
57.12,21.62
57.135,21.836
57.15,21.98
57.165,21.53
57.18,21.433
57.195,21.728
57.21,21.074
57.225,21.046
57.24,21.565
57.255,21.254
57.27,20.578
57.285,20.163
57.3,20.411
57.315,20.506
57.33,20.299
57.345,20.09
57.36,20.066
57.375,20.315
57.39,20.722
57.405,20.437
57.42,20.108
57.435,20.232
57.45,19.817
57.465,19.348
57.48,19.649
57.495,19.947
57.51,20.084
57.525,19.763
57.54,19.474
57.555,19.341
57.57,18.93
57.585,18.92
57.6,19.212
57.615,18.849
57.63,18.652
57.645,18.81
57.66,18.874
57.675,19.107
57.69,18.949
57.705,18.832
57.72,18.902
57.735,18.636
57.75,18.822
57.765,19.343
57.78,18.787
57.795,18.374
57.81,18.443
57.825,18.589
57.84,18.663
57.855,18.561
57.87,18.814
57.885,18.867
57.9,18.514
57.915,18.525
57.93,18.544
57.945,18.5
57.96,18.478
57.975,18.928
57.99,18.853
58.005,18.847
58.02,18.83
58.035,18.857
58.05,18.529
58.065,18.262
58.08,18.833
58.095,19.135
58.11,18.852
58.125,18.82
58.14,18.548
58.155,18.795
58.17,18.863
58.185,18.468
58.2,17.808
58.215,18.354
58.23,19.178
58.245,18.989
58.26,18.804
58.275,18.66
58.29,18.611
58.305,18.563
58.32,18.672
58.335,18.514
58.35,18.849
58.365,18.662
58.38,18.338
58.395,18.32
58.41,18.295
58.425,18.388
58.44,18.758
58.455,18.617
58.47,18.546
58.485,18.699
58.5,18.696
58.515,18.693
58.53,18.958
58.545,18.86
58.56,18.405
58.575,18.345
58.59,18.279
58.605,18.084
58.62,18.282
58.635,18.701
58.65,18.798
58.665,18.496
58.68,18.433
58.695,18.648
58.71,18.763
58.725,18.594
58.74,18.243
58.755,17.993
58.77,18.194
58.785,18.665
58.8,18.532
58.815,18.472
58.83,18.548
58.845,18.42
58.86,18.649
58.875,18.65
58.89,18.382
58.905,18.475
58.92,18.248
58.935,18.606
58.95,18.449
58.965,18.233
58.98,18.066
58.995,17.882
59.01,18.364
59.025,18.718
59.04,18.585
59.055,18.497
59.07,18.476
59.085,18.826
59.1,18.774
59.115,18.804
59.13,18.912
59.145,19.042
59.16,18.371
59.175,18.326
59.19,18.407
59.205,18.703
59.22,18.778
59.235,18.598
59.25,18.717
59.265,18.827
59.28,18.682
59.295,18.601
59.31,18.365
59.325,18.618
59.34,18.811
59.355,18.865
59.37,18.646
59.385,18.48
59.4,18.486
59.415,18.204
59.43,18.327
59.445,18.542
59.46,18.541
59.475,18.622
59.49,18.648
59.505,18.868
59.52,18.57
59.535,18.306
59.55,18.424
59.565,18.728
59.58,18.396
59.595,18.637
59.61,18.74
59.625,18.522
59.64,18.583
59.655,18.738
59.67,18.275
59.685,18.367
59.7,18.329
59.715,18.082
59.73,18.3
59.745,18.345
59.76,18.465
59.775,18.38
59.79,17.943
59.805,18.177
59.82,17.979
59.835,17.915
59.85,17.991
59.865,18.018
59.88,18.157
59.895,18.458
59.91,18.218
59.925,17.848
59.94,18.086
59.955,18.334
59.97,18.169
59.985,18.135
60,18.284
60.015,18.555
60.03,18.845
60.045,18.621
60.06,18.06
60.075,18.053
60.09,18.661
60.105,18.832
60.12,18.636
60.135,18.512
60.15,18.307
60.165,17.997
60.18,18.175
60.195,18.378
60.21,18.479
60.225,18.223
60.24,18.803
60.255,18.432
60.27,18.163
60.285,17.835
60.3,17.77
60.315,18.534
60.33,18.445
60.345,18.613
60.36,18.633
60.375,18.357
60.39,18.146
60.405,17.954
60.42,17.85
60.435,18.374
60.45,18.687
60.465,18.156
60.48,17.757
60.495,18.115
60.51,18.678
60.525,18.501
60.54,18.119
60.555,18.304
60.57,18.064
60.585,17.811
60.6,18.156
60.615,18.154
60.63,18.338
60.645,18.236
60.66,17.923
60.675,18.037
60.69,17.993
60.705,17.996
60.72,17.871
60.735,18.201
60.75,17.929
60.765,17.856
60.78,18.194
60.795,18.328
60.81,18.483
60.825,18.459
60.84,18.28
60.855,17.94
60.87,17.987
60.885,18.225
60.9,18.321
60.915,17.635
60.93,17.515
60.945,18.396
60.96,18.425
60.975,18.086
60.99,18.025
61.005,18.396
61.02,18.519
61.035,18.474
61.05,18.149
61.065,18.1
61.08,18.021
61.095,17.861
61.11,17.79
61.125,17.919
61.14,18.026
61.155,18.589
61.17,18.365
61.185,18.278
61.2,18.317
61.215,18
61.23,18.556
61.245,18.35
61.26,18.046
61.275,17.718
61.29,17.735
61.305,17.948
61.32,18.106
61.335,18.127
61.35,18.354
61.365,18.321
61.38,17.833
61.395,18.074
61.41,17.915
61.425,18.445
61.44,18.764
61.455,18.246
61.47,17.826
61.485,17.805
61.5,17.832
61.515,17.894
61.53,18.083
61.545,18.166
61.56,18.221
61.575,18.422
61.59,18.135
61.605,18.098
61.62,18.766
61.635,18.397
61.65,18.05
61.665,18.286
61.68,18.351
61.695,18.134
61.71,18.208
61.725,18.183
61.74,18.024
61.755,18.147
61.77,18.371
61.785,18.152
61.8,18.028
61.815,18.022
61.83,17.864
61.845,17.877
61.86,18.369
61.875,18.867
61.89,18.601
61.905,18.383
61.92,18.172
61.935,18.208
61.95,18.399
61.965,18.368
61.98,18.062
61.995,18.028
62.01,18.759
62.025,18.732
62.04,18.677
62.055,18.501
62.07,18.342
62.085,18.399
62.1,18.747
62.115,18.958
62.13,19.347
62.145,19.616
62.16,19.648
62.175,19.233
62.19,19.17
62.205,19.617
62.22,19.839
62.235,19.839
62.25,19.945
62.265,20.239
62.28,19.996
62.295,20.246
62.31,20.834
62.325,20.709
62.34,20.223
62.355,20.609
62.37,20.792
62.385,20.868
62.4,21.042
62.415,21.501
62.43,21.414
62.445,21.367
62.46,21.022
62.475,21.541
62.49,22.002
62.505,21.945
62.52,21.662
62.535,21.761
62.55,21.529
62.565,21.521
62.58,21.506
62.595,21.927
62.61,22.373
62.625,22.154
62.64,21.635
62.655,21.737
62.67,22.157
62.685,22.072
62.7,21.879
62.715,21.483
62.73,22.008
62.745,22.016
62.76,21.181
62.775,21.143
62.79,21.19
62.805,21.448
62.82,21.228
62.835,20.587
62.85,20.39
62.865,20.226
62.88,20.651
62.895,21.345
62.91,20.908
62.925,20.223
62.94,19.891
62.955,19.43
62.97,19.723
62.985,19.637
63,19.614
63.015,19.399
63.03,19.433
63.045,19.299
63.06,19.078
63.075,19.241
63.09,19.232
63.105,18.897
63.12,19.311
63.135,19.131
63.15,18.716
63.165,18.394
63.18,18.275
63.195,18.406
63.21,18.29
63.225,18.339
63.24,18.246
63.255,18.552
63.27,18.741
63.285,18.726
63.3,18.734
63.315,18.131
63.33,18.007
63.345,18.666
63.36,18.707
63.375,18.438
63.39,18.117
63.405,18.05
63.42,18.315
63.435,18.035
63.45,17.94
63.465,18.041
63.48,17.784
63.495,17.793
63.51,17.52
63.525,17.76
63.54,18.071
63.555,17.998
63.57,17.919
63.585,17.892
63.6,17.778
63.615,17.531
63.63,17.412
63.645,17.415
63.66,17.769
63.675,18.167
63.69,18.206
63.705,17.962
63.72,17.826
63.735,17.707
63.75,17.847
63.765,17.684
63.78,17.56
63.795,18.111
63.81,18.061
63.825,18.145
63.84,17.604
63.855,17.016
63.87,17.37
63.885,17.887
63.9,17.932
63.915,18.164
63.93,18.267
63.945,17.999
63.96,17.538
63.975,17.378
63.99,17.738
64.005,17.878
64.02,17.936
64.035,17.696
64.05,17.954
64.065,17.993
64.08,17.389
64.095,17.378
64.11,17.551
64.125,17.635
64.14,18.163
64.155,18.209
64.17,17.603
64.185,17.582
64.2,17.245
64.215,17.326
64.23,17.439
64.245,17.921
64.26,18.052
64.275,17.608
64.29,17.414
64.305,17.612
64.32,17.948
64.335,17.87
64.35,17.879
64.365,17.428
64.38,17.614
64.395,17.425
64.41,17.217
64.425,17.563
64.44,17.581
64.455,17.676
64.47,17.629
64.485,17.303
64.5,17.145
64.515,17.055
64.53,17.083
64.545,17.427
64.56,17.488
64.575,17.496
64.59,17.781
64.605,17.545
64.62,17.346
64.635,17.439
64.65,17.946
64.665,17.499
64.68,17.503
64.695,17.491
64.71,16.893
64.725,17.359
64.74,17.593
64.755,17.7
64.77,17.569
64.785,17.138
64.8,17.226
64.815,17.364
64.83,17.021
64.845,17.226
64.86,17.846
64.875,17.527
64.89,17.234
64.905,17.421
64.92,17.739
64.935,17.756
64.95,17.314
64.965,17.276
64.98,17.326
64.995,17.319
65.01,17.47
65.025,17.531
65.04,17.308
65.055,17.212
65.07,17.379
65.085,17.663
65.1,17.512
65.115,17.522
65.13,17.66
65.145,17.831
65.16,17.529
65.175,17.733
65.19,17.586
65.205,17.711
65.22,17.444
65.235,17.237
65.25,17.757
65.265,17.342
65.28,17.23
65.295,17.531
65.31,17.155
65.325,17.242
65.34,17.568
65.355,17.342
65.37,17.069
65.385,17.153
65.4,17.338
65.415,17.049
65.43,17.279
65.445,17.631
65.46,17.467
65.475,17.402
65.49,17.264
65.505,17.469
65.52,17.355
65.535,17.232
65.55,17.015
65.565,17.391
65.58,17.847
65.595,17.334
65.61,17.158
65.625,17.447
65.64,17.806
65.655,17.811
65.67,17.591
65.685,17.229
65.7,17.39
65.715,16.954
65.73,17.442
65.745,17.993
65.76,17.878
65.775,17.73
65.79,17.505
65.805,17.68
65.82,17.49
65.835,17.21
65.85,17.457
65.865,17.53
65.88,17.518
65.895,17.733
65.91,17.538
65.925,17.634
65.94,17.678
65.955,17.651
65.97,17.154
65.985,16.52
66,16.628
66.015,17.056
66.03,17.259
66.045,17.697
66.06,17.594
66.075,17.356
66.09,17.628
66.105,17.123
66.12,17.002
66.135,17.109
66.15,16.808
66.165,16.823
66.18,17.427
66.195,17.124
66.21,16.994
66.225,17.061
66.24,17.548
66.255,17.304
66.27,17.336
66.285,17.511
66.3,17.377
66.315,17.589
66.33,17.431
66.345,17.264
66.36,17.676
66.375,17.872
66.39,17.336
66.405,17.214
66.42,17.364
66.435,17.558
66.45,17.239
66.465,17.277
66.48,17.349
66.495,17.345
66.51,17.401
66.525,17.237
66.54,17.589
66.555,17.459
66.57,17.31
66.585,17.436
66.6,17.488
66.615,17.037
66.63,16.933
66.645,17.463
66.66,17.205
66.675,17.191
66.69,17.548
66.705,17.375
66.72,17.007
66.735,17.578
66.75,17.124
66.765,17.121
66.78,17.283
66.795,17.169
66.81,17.126
66.825,16.989
66.84,17.151
66.855,17.46
66.87,17.356
66.885,17.217
66.9,17.08
66.915,16.554
66.93,16.97
66.945,17.063
66.96,17.005
66.975,17.116
66.99,17.022
67.005,17.14
67.02,17.337
67.035,17.419
67.05,17.77
67.065,17.496
67.08,17.276
67.095,16.866
67.11,17.187
67.125,17.365
67.14,17.3
67.155,17.395
67.17,17.148
67.185,17.207
67.2,16.891
67.215,17.175
67.23,17.548
67.245,16.992
67.26,16.963
67.275,16.971
67.29,17.246
67.305,17.172
67.32,17.078
67.335,17.193
67.35,17.122
67.365,17.096
67.38,17.537
67.395,17.737
67.41,17.394
67.425,17.47
67.44,17.325
67.455,17.306
67.47,17.396
67.485,17.354
67.5,17.055
67.515,17.05
67.53,17.333
67.545,17.255
67.56,16.989
67.575,17.314
67.59,17.407
67.605,17.048
67.62,17.039
67.635,17.207
67.65,17.198
67.665,17.316
67.68,17.554
67.695,16.805
67.71,16.794
67.725,16.978
67.74,17.145
67.755,17.179
67.77,16.793
67.785,16.959
67.8,17.046
67.815,17.286
67.83,17.177
67.845,16.857
67.86,17.125
67.875,17.288
67.89,16.99
67.905,16.889
67.92,17.226
67.935,17.146
67.95,17.144
67.965,17.18
67.98,16.863
67.995,16.615
68.01,16.817
68.025,16.993
68.04,16.6
68.055,16.874
68.07,17.091
68.085,16.875
68.1,16.648
68.115,16.699
68.13,16.959
68.145,16.932
68.16,16.848
68.175,17.262
68.19,16.986
68.205,17.349
68.22,17.263
68.235,17.081
68.25,17.245
68.265,16.984
68.28,16.824
68.295,17.002
68.31,16.851
68.325,16.856
68.34,16.741
68.355,16.413
68.37,16.645
68.385,16.9
68.4,17.21
68.415,17.154
68.43,16.987
68.445,17.071
68.46,16.997
68.475,17.258
68.49,17.333
68.505,17.083
68.52,16.86
68.535,16.965
68.55,17.252
68.565,17.038
68.58,16.978
68.595,17.047
68.61,17.156
68.625,17.25
68.64,16.777
68.655,16.709
68.67,16.941
68.685,17.093
68.7,17.097
68.715,16.823
68.73,16.587
68.745,16.895
68.76,16.998
68.775,16.857
68.79,16.757
68.805,16.597
68.82,16.697
68.835,16.706
68.85,16.658
68.865,16.32
68.88,16.561
68.895,16.957
68.91,17.175
68.925,17.119
68.94,16.909
68.955,16.926
68.97,17.061
68.985,17.06
69,16.841
69.015,16.949
69.03,17.163
69.045,17.13
69.06,17.108
69.075,17.114
69.09,16.995
69.105,17.056
69.12,17.058
69.135,17.12
69.15,17.048
69.165,17.041
69.18,17.192
69.195,16.945
69.21,16.756
69.225,16.76
69.24,16.794
69.255,16.81
69.27,16.939
69.285,16.583
69.3,16.522
69.315,16.483
69.33,16.928
69.345,17.06
69.36,16.857
69.375,16.865
69.39,16.744
69.405,16.406
69.42,16.869
69.435,16.992
69.45,16.443
69.465,16.448
69.48,16.702
69.495,17.017
69.51,17.199
69.525,16.865
69.54,16.75
69.555,17.261
69.57,16.934
69.585,16.628
69.6,16.808
69.615,16.846
69.63,16.532
69.645,16.845
69.66,17.244
69.675,16.97
69.69,16.84
69.705,16.966
69.72,16.638
69.735,16.719
69.75,17.139
69.765,16.882
69.78,16.395
69.795,16.583
69.81,16.369
69.825,16.367
69.84,16.399
69.855,16.658
69.87,16.888
69.885,17.079
69.9,17.258
69.915,16.897
69.93,16.597
69.945,16.791
69.96,16.882
69.975,17.111
69.99,17.165
70.005,16.857
70.02,16.649
70.035,16.845
70.05,16.702
70.065,16.731
70.08,16.862
70.095,17.047
70.11,16.601
70.125,16.009
70.14,16.24
70.155,17.174
70.17,17.021
70.185,17.169
70.2,17.155
70.215,17.273
70.23,17.196
70.245,16.987
70.26,17.011
70.275,16.827
70.29,16.489
70.305,16.648
70.32,16.738
70.335,17.076
70.35,17.309
70.365,16.965
70.38,16.888
70.395,16.847
70.41,16.926
70.425,16.61
70.44,16.485
70.455,16.737
70.47,16.905
70.485,16.81
70.5,16.732
70.515,16.933
70.53,16.861
70.545,16.704
70.56,16.657
70.575,16.421
70.59,16.944
70.605,17.019
70.62,16.872
70.635,16.946
70.65,17.175
70.665,17.243
70.68,16.98
70.695,17.114
70.71,17.112
70.725,16.98
70.74,16.72
70.755,16.719
70.77,16.938
70.785,16.726
70.8,16.561
70.815,16.996
70.83,16.993
70.845,17.214
70.86,17.16
70.875,16.948
70.89,17.22
70.905,17.078
70.92,17.109
70.935,17.058
70.95,17.044
70.965,16.729
70.98,16.798
70.995,16.939
71.01,16.694
71.025,16.713
71.04,16.592
71.055,16.908
71.07,17.207
71.085,17.349
71.1,17.026
71.115,16.727
71.13,16.545
71.145,16.805
71.16,16.763
71.175,16.377
71.19,16.606
71.205,17.301
71.22,17.081
71.235,17.2
71.25,16.996
71.265,16.727
71.28,16.786
71.295,16.757
71.31,17.092
71.325,17.02
71.34,16.744
71.355,16.761
71.37,16.639
71.385,16.651
71.4,16.799
71.415,16.533
71.43,16.541
71.445,16.472
71.46,16.49
71.475,17.058
71.49,16.781
71.505,16.506
71.52,16.53
71.535,16.295
71.55,16.282
71.565,16.412
71.58,16.447
71.595,16.237
71.61,16.29
71.625,16.437
71.64,16.775
71.655,16.778
71.67,16.179
71.685,16.006
71.7,16.602
71.715,16.769
71.73,16.556
71.745,16.574
71.76,16.549
71.775,16.718
71.79,16.678
71.805,16.558
71.82,16.828
71.835,16.793
71.85,16.606
71.865,16.379
71.88,16.313
71.895,16.692
71.91,16.98
71.925,17.112
71.94,16.941
71.955,16.512
71.97,16.553
71.985,17.106
72,16.643
72.015,16.361
72.03,16.653
72.045,16.335
72.06,16.306
72.075,16.47
72.09,16.71
72.105,16.645
72.12,16.721
72.135,16.65
72.15,16.274
72.165,16.282
72.18,16.421
72.195,16.492
72.21,16.424
72.225,16.563
72.24,16.232
72.255,16.361
72.27,16.301
72.285,16.688
72.3,16.584
72.315,16.575
72.33,16.642
72.345,16.254
72.36,16.161
72.375,16.345
72.39,16.649
72.405,16.809
72.42,16.485
72.435,16.555
72.45,16.677
72.465,16.134
72.48,16.336
72.495,16.786
72.51,16.786
72.525,16.522
72.54,16.668
72.555,16.623
72.57,16.584
72.585,16.416
72.6,16.866
72.615,16.853
72.63,16.613
72.645,16.386
72.66,16.648
72.675,16.389
72.69,16.155
72.705,16.406
72.72,16.659
72.735,16.571
72.75,16.441
72.765,16.728
72.78,16.899
72.795,16.531
72.81,16.26
72.825,16.582
72.84,16.859
72.855,16.22
72.87,15.9
72.885,16.465
72.9,16.63
72.915,16.325
72.93,16.641
72.945,16.895
72.96,16.627
72.975,16.374
72.99,16.269
73.005,16.305
73.02,16.188
73.035,16.18
73.05,16.556
73.065,16.547
73.08,16.663
73.095,16.662
73.11,16.478
73.125,16.716
73.14,16.571
73.155,16.276
73.17,16.442
73.185,16.047
73.2,16.175
73.215,16.383
73.23,16.538
73.245,17.212
73.26,16.777
73.275,16.068
73.29,15.953
73.305,15.818
73.32,16.088
73.335,16.398
73.35,16.743
73.365,16.462
73.38,16.501
73.395,16.475
73.41,16.45
73.425,16.702
73.44,16.642
73.455,16.409
73.47,16.702
73.485,16.546
73.5,16.277
73.515,16.051
73.53,16.481
73.545,16.651
73.56,16.401
73.575,16.392
73.59,16.783
73.605,16.769
73.62,16.609
73.635,16.316
73.65,16.286
73.665,16.643
73.68,16.712
73.695,16.641
73.71,16.451
73.725,16.387
73.74,16.463
73.755,16.673
73.77,17.01
73.785,16.976
73.8,16.962
73.815,17.263
73.83,17.214
73.845,17.125
73.86,16.801
73.875,16.8
73.89,17.084
73.905,16.801
73.92,16.555
73.935,16.501
73.95,16.685
73.965,16.736
73.98,16.864
73.995,17.187
74.01,16.972
74.025,16.819
74.04,17.084
74.055,17.044
74.07,16.666
74.085,16.834
74.1,16.925
74.115,16.719
74.13,16.585
74.145,16.483
74.16,16.886
74.175,17.13
74.19,17.042
74.205,17.134
74.22,17.08
74.235,16.723
74.25,16.873
74.265,16.86
74.28,16.523
74.295,16.559
74.31,16.556
74.325,16.864
74.34,16.866
74.355,16.846
74.37,16.76
74.385,16.584
74.4,16.805
74.415,16.65
74.43,16.288
74.445,16.237
74.46,16.974
74.475,17.087
74.49,16.55
74.505,16.479
74.52,16.797
74.535,16.535
74.55,16.784
74.565,17.001
74.58,16.891
74.595,16.693
74.61,16.649
74.625,16.382
74.64,16.487
74.655,16.648
74.67,16.379
74.685,16.349
74.7,16.324
74.715,16.348
74.73,16.249
74.745,16.586
74.76,16.705
74.775,16.547
74.79,16.498
74.805,16.404
74.82,16.581
74.835,16.801
74.85,16.689
74.865,16.604
74.88,16.962
74.895,16.758
74.91,16.49
74.925,16.689
74.94,16.664
74.955,16.282
74.97,16.155
74.985,16.332
75,16.287
75.015,16.442
75.03,16.626
75.045,16.555
75.06,16.641
75.075,16.094
75.09,16.193
75.105,15.883
75.12,16.177
75.135,16.161
75.15,15.509
75.165,15.599
75.18,15.692
75.195,16.922
75.21,17.564
75.225,17.156
75.24,16.405
75.255,16.211
75.27,15.315
75.285,15.412
75.3,15.629
75.315,15.744
75.33,15.213
75.345,22.974
