24.99,26.216
25.005,27.147
25.02,26.976
25.035,26.719
25.05,26.517
25.065,26.802
25.08,26.971
25.095,27.132
25.11,27.166
25.125,26.834
25.14,26.725
25.155,26.846
25.17,26.763
25.185,26.688
25.2,26.591
25.215,26.384
25.23,26.417
25.245,26.478
25.26,26.534
25.275,26.587
25.29,26.892
25.305,26.984
25.32,26.661
25.335,26.566
25.35,26.414
25.365,26.547
25.38,26.41
25.395,26.362
25.41,26.603
25.425,26.494
25.44,26.454
25.455,26.456
25.47,26.217
25.485,26.008
25.5,26.181
25.515,26.32
25.53,26.315
25.545,26.443
25.56,26.57
25.575,26.347
25.59,26.307
25.605,26.432
25.62,26.186
25.635,25.995
25.65,26.022
25.665,26.315
25.68,26.322
25.695,26.315
25.71,26.413
25.725,26.321
25.74,26.207
25.755,26.377
25.77,26.255
25.785,26.17
25.8,26.215
25.815,26.249
25.83,26.287
25.845,26.137
25.86,26.206
25.875,26.013
25.89,25.907
25.905,26.232
25.92,26.287
25.935,26.001
25.95,25.946
25.965,26.295
25.98,26.137
25.995,26.16
26.01,26.269
26.025,26.05
26.04,26.027
26.055,26.063
26.07,26.044
26.085,26.011
26.1,26
26.115,26.165
26.13,26.26
26.145,26.162
26.16,25.952
26.175,25.933
26.19,26.075
26.205,25.935
26.22,25.776
26.235,26
26.25,26.179
26.265,25.921
26.28,25.844
26.295,25.862
26.31,25.833
26.325,25.834
26.34,25.811
26.355,25.85
26.37,25.821
26.385,25.864
26.4,25.909
26.415,25.873
26.43,25.819
26.445,25.83
26.46,25.811
26.475,25.884
26.49,25.857
26.505,25.718
26.52,25.858
26.535,25.777
26.55,25.768
26.565,25.826
26.58,25.782
26.595,25.82
26.61,25.782
26.625,25.621
26.64,25.706
26.655,25.716
26.67,25.79
26.685,25.632
26.7,25.433
26.715,25.443
26.73,25.679
26.745,25.687
26.76,25.763
26.775,25.672
26.79,25.626
26.805,25.669
26.82,25.649
26.835,25.671
26.85,25.682
26.865,25.564
26.88,25.499
26.895,25.532
26.91,25.536
26.925,25.534
26.94,25.597
26.955,25.591
26.97,25.736
26.985,25.775
27,25.703
27.015,25.587
27.03,25.491
27.045,25.717
27.06,25.699
27.075,25.625
27.09,25.554
27.105,25.612
27.12,25.654
27.135,25.565
27.15,25.428
27.165,25.448
27.18,25.501
27.195,25.638
27.21,25.502
27.225,25.536
27.24,25.656
27.255,25.512
27.27,25.405
27.285,25.368
27.3,25.427
27.315,25.379
27.33,25.504
27.345,25.513
27.36,25.542
27.375,25.351
27.39,25.089
27.405,25.174
27.42,25.23
27.435,25.288
27.45,25.316
27.465,25.26
27.48,25.218
27.495,25.045
27.51,25.204
27.525,25.274
27.54,25.298
27.555,25.362
27.57,25.398
27.585,25.501
27.6,25.328
27.615,25.255
27.63,25.34
27.645,25.35
27.66,25.195
27.675,25.066
27.69,25.272
27.705,25.342
27.72,25.203
27.735,25.005
27.75,25.087
27.765,25.129
27.78,25.309
27.795,25.289
27.81,25.375
27.825,25.241
27.84,25.12
27.855,25.09
27.87,25.096
27.885,25.164
27.9,25.263
27.915,25.209
27.93,25.193
27.945,25.253
27.96,25.101
27.975,25.12
27.99,25.065
28.005,25.103
28.02,25
28.035,25.012
28.05,25.221
28.065,25.238
28.08,25.176
28.095,25.106
28.11,24.986
28.125,25.203
28.14,25.198
28.155,25.073
28.17,25.065
28.185,25.122
28.2,25.101
28.215,25.004
28.23,25.104
28.245,25.198
28.26,25.335
28.275,25.244
28.29,25.164
28.305,25.149
28.32,25.113
28.335,25.11
28.35,25.146
28.365,25.175
28.38,25.161
28.395,25.225
28.41,25.156
28.425,25.025
28.44,25.026
28.455,25.058
28.47,24.97
28.485,25.073
28.5,24.995
28.515,24.95
28.53,25.109
28.545,25.166
28.56,25.083
28.575,24.994
28.59,25.016
28.605,25.089
28.62,25.013
28.635,25.007
28.65,25.118
28.665,25.006
28.68,25.048
28.695,25.172
28.71,25.088
28.725,25.033
28.74,25.026
28.755,25.082
28.77,25.105
28.785,25.079
28.8,25.014
28.815,25.097
28.83,25.061
28.845,25.043
28.86,25.008
28.875,25.023
28.89,24.982
28.905,24.908
28.92,24.937
28.935,24.909
28.95,24.843
28.965,24.923
28.98,24.938
28.995,24.916
29.01,24.996
29.025,25.09
29.04,24.923
29.055,24.923
29.07,24.947
29.085,24.854
29.1,24.869
29.115,24.909
29.13,24.94
29.145,25.15
29.16,24.99
29.175,24.779
29.19,24.743
29.205,24.855
29.22,24.928
29.235,24.873
29.25,24.941
29.265,24.93
29.28,24.83
29.295,24.868
29.31,24.943
29.325,25.068
29.34,25.059
29.355,24.934
29.37,25.037
29.385,25.098
29.4,25.144
29.415,25.072
29.43,24.924
29.445,24.968
29.46,24.856
29.475,25.048
29.49,25.076
29.505,25.001
29.52,25.172
29.535,25.282
29.55,25.446
29.565,25.453
29.58,25.342
29.595,25.289
29.61,25.374
29.625,25.456
29.64,25.564
29.655,25.599
29.67,25.56
29.685,25.805
29.7,25.932
29.715,25.848
29.73,25.894
29.745,26.253
29.76,26.447
29.775,26.387
29.79,26.389
29.805,26.517
29.82,26.706
29.835,26.871
29.85,27.009
29.865,27.113
29.88,27.163
29.895,27.378
29.91,27.487
29.925,27.538
29.94,27.671
29.955,27.677
29.97,27.787
29.985,27.798
30,27.928
30.015,28.16
30.03,28.192
30.045,28.244
30.06,28.304
30.075,28.168
30.09,28.229
30.105,28.183
30.12,28.109
30.135,28.12
30.15,28.069
30.165,28.059
30.18,28.159
30.195,27.94
30.21,27.865
30.225,27.824
30.24,27.642
30.255,27.726
30.27,27.624
30.285,27.431
30.3,27.276
30.315,27.182
30.33,27.12
30.345,26.758
30.36,26.609
30.375,26.526
30.39,26.445
30.405,26.167
30.42,26.144
30.435,26.18
30.45,26.07
30.465,26.004
30.48,25.847
30.495,25.668
30.51,25.658
30.525,25.616
30.54,25.418
30.555,25.322
30.57,25.486
30.585,25.247
30.6,25.105
30.615,25.1
30.63,25.114
30.645,25.167
30.66,24.941
30.675,24.94
30.69,24.927
30.705,24.795
30.72,24.768
30.735,24.779
30.75,24.728
30.765,24.62
30.78,24.578
30.795,24.644
30.81,24.66
30.825,24.721
30.84,24.607
30.855,24.485
30.87,24.584
30.885,24.543
30.9,24.452
30.915,24.509
30.93,24.4
30.945,24.37
30.96,24.697
30.975,24.697
30.99,24.539
31.005,24.38
31.02,24.452
31.035,24.523
31.05,24.46
31.065,24.482
31.08,24.351
31.095,24.417
31.11,24.483
31.125,24.452
31.14,24.426
31.155,24.386
31.17,24.389
31.185,24.378
31.2,24.365
31.215,24.438
31.23,24.364
31.245,24.389
31.26,24.499
31.275,24.338
31.29,24.383
31.305,24.449
31.32,24.393
31.335,24.277
31.35,24.376
31.365,24.429
31.38,24.395
31.395,24.346
31.41,24.401
31.425,24.366
31.44,24.412
31.455,24.403
31.47,24.348
31.485,24.395
31.5,24.246
31.515,24.179
31.53,24.295
31.545,24.207
31.56,24.297
31.575,24.379
31.59,24.382
31.605,24.337
31.62,24.271
31.635,24.546
31.65,24.466
31.665,24.357
31.68,24.402
31.695,24.184
31.71,24.271
31.725,24.437
31.74,24.382
31.755,24.373
31.77,24.33
31.785,24.238
31.8,24.18
31.815,24.096
31.83,24.188
31.845,24.186
31.86,24.22
31.875,24.193
31.89,24.184
31.905,24.052
31.92,24.087
31.935,24.274
31.95,24.307
31.965,24.074
31.98,24.09
31.995,24.097
32.01,24.067
32.025,24.114
32.04,24.143
32.055,24.193
32.07,24.319
32.085,24.245
32.1,24.08
32.115,24.037
32.13,24.267
32.145,24.357
32.16,24.21
32.175,24.143
32.19,24.114
32.205,23.978
32.22,23.981
32.235,23.898
32.25,23.897
32.265,24.102
32.28,24.167
32.295,24.245
32.31,24.074
32.325,23.979
32.34,24.111
32.355,24.083
32.37,24.018
32.385,24.103
32.4,24.089
32.415,24.104
32.43,24.056
32.445,23.988
32.46,24.007
32.475,23.961
32.49,23.959
32.505,23.883
32.52,23.933
32.535,23.887
32.55,23.994
32.565,24.043
32.58,24.038
32.595,24.037
32.61,24.026
32.625,23.976
32.64,24.032
32.655,23.989
32.67,23.966
32.685,24.028
32.7,24.077
32.715,24.125
32.73,24.067
32.745,24.045
32.76,23.932
32.775,23.941
32.79,24.083
32.805,24.206
32.82,24.05
32.835,24.036
32.85,24.003
32.865,24.114
32.88,24.121
32.895,24.037
32.91,23.833
32.925,23.773
32.94,23.888
32.955,23.949
32.97,23.77
32.985,23.866
33,23.923
33.015,23.822
33.03,24.033
33.045,24.011
33.06,23.926
33.075,23.879
33.09,23.815
33.105,23.81
33.12,23.843
33.135,23.906
33.15,24.003
33.165,23.951
33.18,23.857
33.195,23.901
33.21,23.9
33.225,23.865
33.24,23.936
33.255,23.943
33.27,23.997
33.285,23.858
33.3,23.921
33.315,23.969
33.33,24.185
33.345,24.206
33.36,24.069
33.375,23.883
33.39,23.93
33.405,23.783
33.42,23.786
33.435,23.797
33.45,23.891
33.465,23.92
33.48,23.79
33.495,23.773
33.51,23.715
33.525,23.864
33.54,23.916
33.555,23.668
33.57,23.646
33.585,23.971
33.6,23.978
33.615,23.962
33.63,23.893
33.645,23.704
33.66,23.868
33.675,23.954
33.69,23.925
33.705,23.93
33.72,24.085
33.735,24.052
33.75,23.889
33.765,23.79
33.78,23.806
33.795,23.641
33.81,23.783
33.825,24.055
33.84,23.997
33.855,23.943
33.87,23.889
33.885,23.845
33.9,23.848
33.915,23.921
33.93,23.865
33.945,23.855
33.96,23.962
33.975,23.924
33.99,23.92
34.005,23.916
34.02,24.028
34.035,23.98
34.05,23.869
34.065,23.971
34.08,24.131
34.095,23.984
34.11,23.989
34.125,24.022
34.14,23.939
34.155,23.949
34.17,23.902
34.185,23.862
34.2,23.947
34.215,23.933
34.23,23.893
34.245,24.028
34.26,24.072
34.275,23.993
34.29,23.918
34.305,23.895
34.32,23.939
34.335,24.002
34.35,24.229
34.365,24.327
34.38,24.133
34.395,24.147
34.41,24.02
34.425,23.871
34.44,23.952
34.455,23.948
34.47,24.14
34.485,24.399
34.5,24.234
34.515,24.164
34.53,24.234
34.545,24.135
34.56,24.095
34.575,24.239
34.59,24.38
34.605,24.393
34.62,24.221
34.635,24.212
34.65,24.108
34.665,24.108
34.68,24.261
34.695,24.35
34.71,24.264
34.725,24.227
34.74,24.332
34.755,24.385
34.77,24.366
34.785,24.495
34.8,24.604
34.815,24.7
34.83,24.904
34.845,24.929
34.86,25.025
34.875,25.054
34.89,25.2
34.905,25.258
34.92,25.48
34.935,25.687
34.95,25.773
34.965,25.849
34.98,26.026
34.995,26.393
35.01,26.81
35.025,27.03
35.04,27.313
35.055,27.457
35.07,27.704
35.085,28.07
35.1,28.451
35.115,28.751
35.13,29.232
35.145,29.624
35.16,29.827
35.175,30.171
35.19,30.529
35.205,30.975
35.22,31.307
35.235,31.682
35.25,32.1
35.265,32.489
35.28,32.823
35.295,33.088
35.31,33.364
35.325,33.857
35.34,34.228
35.355,34.281
35.37,34.394
35.385,34.529
35.4,34.726
35.415,34.936
35.43,34.983
35.445,35.127
35.46,35.087
35.475,34.936
35.49,34.662
35.505,34.501
35.52,34.514
35.535,34.322
35.55,34.233
35.565,33.886
35.58,33.444
35.595,33.351
35.61,33.096
35.625,32.646
35.64,32.5
35.655,32.232
35.67,31.756
35.685,31.277
35.7,30.962
35.715,30.628
35.73,30.198
35.745,29.923
35.76,29.561
35.775,29.262
35.79,28.872
35.805,28.338
35.82,28.17
35.835,27.902
35.85,27.544
35.865,27.076
35.88,26.762
35.895,26.394
35.91,26.375
35.925,26.223
35.94,25.971
35.955,25.681
35.97,25.456
35.985,25.42
36,25.265
36.015,24.932
36.03,24.92
36.045,24.861
36.06,24.747
36.075,24.576
36.09,24.368
36.105,24.376
36.12,24.414
36.135,24.072
36.15,23.984
36.165,24.087
36.18,24.071
36.195,24.073
36.21,23.839
36.225,23.783
36.24,23.696
36.255,23.771
36.27,23.926
36.285,24.031
36.3,23.926
36.315,23.772
36.33,23.617
36.345,23.564
36.36,23.634
36.375,23.731
36.39,23.816
36.405,23.651
36.42,23.599
36.435,23.53
36.45,23.597
36.465,23.625
36.48,23.437
36.495,23.461
36.51,23.649
36.525,23.778
36.54,23.71
36.555,23.536
36.57,23.537
36.585,23.502
36.6,23.612
36.615,23.578
36.63,23.486
36.645,23.531
36.66,23.48
36.675,23.46
36.69,23.517
36.705,23.688
36.72,23.768
36.735,23.701
36.75,23.651
36.765,23.62
36.78,23.676
36.795,23.725
36.81,23.643
36.825,23.706
36.84,23.749
36.855,23.588
36.87,23.681
36.885,23.916
36.9,23.833
36.915,23.8
36.93,23.737
36.945,23.788
36.96,24.006
36.975,23.886
36.99,23.7
37.005,23.726
37.02,23.704
37.035,23.753
37.05,23.849
37.065,23.899
37.08,23.981
37.095,23.808
37.11,23.7
37.125,23.766
37.14,23.769
37.155,23.864
37.17,23.896
37.185,23.661
37.2,23.72
37.215,23.675
37.23,23.695
37.245,23.616
37.26,23.564
37.275,23.614
37.29,23.659
37.305,23.715
37.32,23.538
37.335,23.624
37.35,23.52
37.365,23.387
37.38,23.182
37.395,23.116
37.41,23.167
37.425,23.215
37.44,23.252
37.455,23.198
37.47,23.097
37.485,23.171
37.5,23.117
37.515,23.001
37.53,23.035
37.545,22.992
37.56,22.868
37.575,22.939
37.59,22.934
37.605,22.781
37.62,22.777
37.635,22.871
37.65,22.981
37.665,22.969
37.68,22.87
37.695,22.847
37.71,22.869
37.725,22.82
37.74,22.742
37.755,22.832
37.77,22.898
37.785,22.909
37.8,22.849
37.815,22.886
37.83,22.726
37.845,22.591
37.86,22.746
37.875,22.785
37.89,22.707
37.905,22.754
37.92,22.751
37.935,22.527
37.95,22.578
37.965,22.663
37.98,22.687
37.995,22.796
38.01,22.83
38.025,22.744
38.04,22.722
38.055,22.768
38.07,22.806
38.085,22.699
38.1,22.675
38.115,22.646
38.13,22.691
38.145,22.657
38.16,22.697
38.175,22.808
38.19,22.715
38.205,22.676
38.22,22.737
38.235,22.729
38.25,22.62
38.265,22.721
38.28,22.841
38.295,22.787
38.31,22.63
38.325,22.654
38.34,22.696
38.355,22.602
38.37,22.53
38.385,22.641
38.4,22.743
38.415,22.559
38.43,22.508
38.445,22.621
38.46,22.397
38.475,22.305
38.49,22.494
38.505,22.736
38.52,22.694
38.535,22.654
38.55,22.537
38.565,22.622
38.58,22.582
38.595,22.618
38.61,22.639
38.625,22.485
38.64,22.501
38.655,22.57
38.67,22.522
38.685,22.542
38.7,22.486
38.715,22.401
38.73,22.618
38.745,22.639
38.76,22.486
38.775,22.539
38.79,22.53
38.805,22.451
38.82,22.426
38.835,22.484
38.85,22.559
38.865,22.584
38.88,22.382
38.895,22.49
38.91,22.607
38.925,22.488
38.94,22.548
38.955,22.528
38.97,22.539
38.985,22.488
39,22.466
39.015,22.413
39.03,22.36
39.045,22.413
39.06,22.497
39.075,22.455
39.09,22.452
39.105,22.408
39.12,22.38
39.135,22.415
39.15,22.388
39.165,22.419
39.18,22.546
39.195,22.531
39.21,22.421
39.225,22.453
39.24,22.687
39.255,22.709
39.27,22.402
39.285,22.341
39.3,22.314
39.315,22.535
39.33,22.529
39.345,22.44
39.36,22.43
39.375,22.347
39.39,22.488
39.405,22.428
39.42,22.358
39.435,22.328
39.45,22.254
39.465,22.355
39.48,22.402
39.495,22.391
39.51,22.263
39.525,22.201
39.54,22.305
39.555,22.321
39.57,22.298
39.585,22.245
39.6,22.279
39.615,22.35
39.63,22.323
39.645,22.373
39.66,22.327
39.675,22.413
39.69,22.453
39.705,22.462
39.72,22.522
39.735,22.372
39.75,22.259
39.765,22.261
39.78,22.262
39.795,22.303
39.81,22.298
39.825,22.223
39.84,22.313
39.855,22.321
39.87,22.178
39.885,22.23
39.9,22.295
39.915,22.277
39.93,22.166
39.945,22.191
39.96,22.217
39.975,22.317
39.99,22.394
40.005,22.399
40.02,22.32
40.035,22.372
40.05,22.186
40.065,22.07
40.08,22.165
40.095,22.055
40.11,22.141
40.125,22.421
40.14,22.457
40.155,22.423
40.17,22.361
40.185,22.288
40.2,22.273
40.215,22.192
40.23,22.321
40.245,22.36
40.26,22.346
40.275,22.307
40.29,22.28
40.305,22.269
40.32,22.313
40.335,22.281
40.35,22.202
40.365,22.253
40.38,22.156
40.395,22.083
40.41,22.206
40.425,22.274
40.44,22.233
40.455,22.35
40.47,22.4
40.485,22.299
40.5,22.197
40.515,22.011
40.53,22.091
40.545,22.161
40.56,22.135
40.575,22.12
40.59,22.228
40.605,22.123
40.62,22.067
40.635,22.116
40.65,22.073
40.665,22.126
40.68,21.96
40.695,22.104
40.71,22.304
40.725,22.303
40.74,22.225
40.755,22.083
40.77,22.028
40.785,22.132
40.8,22.04
40.815,21.923
40.83,21.973
40.845,22.001
40.86,22.005
40.875,22.035
40.89,22.049
40.905,22.124
40.92,22.164
40.935,22.093
40.95,22.155
40.965,22.205
40.98,22.109
40.995,22.1
41.01,22.191
41.025,22.141
41.04,22.159
41.055,22.089
41.07,21.965
41.085,22.119
41.1,22.234
41.115,22.1
41.13,22.087
41.145,22.137
41.16,22.039
41.175,22.1
41.19,22.206
41.205,21.994
41.22,21.982
41.235,22.063
41.25,22.123
41.265,22.072
41.28,21.935
41.295,21.835
41.31,21.962
41.325,21.919
41.34,21.849
41.355,21.946
41.37,21.979
41.385,21.878
41.4,22
41.415,22.044
41.43,21.917
41.445,21.917
41.46,22.037
41.475,22.115
41.49,22.099
41.505,22.057
41.52,21.917
41.535,21.805
41.55,21.977
41.565,21.982
41.58,21.946
41.595,22.14
41.61,21.86
41.625,21.806
41.64,22.078
41.655,21.967
41.67,21.776
41.685,21.854
41.7,21.956
41.715,22.106
41.73,22.064
41.745,21.81
41.76,21.846
41.775,22.026
41.79,21.883
41.805,21.762
41.82,21.837
41.835,21.807
41.85,21.863
41.865,21.8
41.88,21.676
41.895,21.862
41.91,21.997
41.925,21.978
41.94,21.981
41.955,21.917
41.97,21.78
41.985,21.823
42,21.971
42.015,21.912
42.03,21.907
42.045,21.788
42.06,21.831
42.075,22.003
42.09,21.896
42.105,21.82
42.12,21.845
42.135,21.889
42.15,21.901
42.165,21.95
42.18,21.977
42.195,22.025
42.21,22.07
42.225,21.801
42.24,21.847
42.255,21.987
42.27,22.114
42.285,21.994
42.3,21.816
42.315,21.892
42.33,21.903
42.345,21.942
42.36,21.884
42.375,21.929
42.39,22.004
42.405,21.942
42.42,21.97
42.435,21.893
42.45,21.923
42.465,22.004
42.48,21.943
42.495,21.906
42.51,22.062
42.525,22.172
42.54,22.138
42.555,22.172
42.57,22.252
42.585,22.164
42.6,22.271
42.615,22.419
42.63,22.36
42.645,22.467
42.66,22.427
42.675,22.395
42.69,22.405
42.705,22.502
42.72,22.614
42.735,22.796
42.75,22.721
42.765,22.712
42.78,22.778
42.795,22.855
42.81,23.071
42.825,23.026
42.84,22.956
42.855,23.241
42.87,23.318
42.885,23.343
42.9,23.368
42.915,23.47
42.93,23.545
42.945,23.511
42.96,23.71
42.975,23.756
42.99,23.868
43.005,23.99
43.02,23.945
43.035,24.086
43.05,24.05
43.065,24.061
43.08,24.072
43.095,23.969
43.11,24.039
43.125,24.107
43.14,24.192
43.155,23.988
43.17,23.885
43.185,23.766
43.2,23.533
43.215,23.588
43.23,23.578
43.245,23.578
43.26,23.544
43.275,23.58
43.29,23.407
43.305,23.236
43.32,23.337
43.335,23.316
43.35,23.05
43.365,22.914
43.38,22.774
43.395,22.854
43.41,22.82
43.425,22.516
43.44,22.576
43.455,22.48
43.47,22.331
43.485,22.293
43.5,22.333
43.515,22.299
43.53,22.177
43.545,22.028
43.56,21.995
43.575,22.027
43.59,22.035
43.605,22.044
43.62,21.898
43.635,21.741
43.65,21.909
43.665,21.862
43.68,21.699
43.695,21.77
43.71,21.723
43.725,21.63
43.74,21.558
43.755,21.635
43.77,21.578
43.785,21.504
43.8,21.456
43.815,21.489
43.83,21.547
43.845,21.605
43.86,21.548
43.875,21.577
43.89,21.589
43.905,21.646
43.92,21.521
43.935,21.563
43.95,21.496
43.965,21.399
43.98,21.456
43.995,21.442
44.01,21.342
44.025,21.357
44.04,21.426
44.055,21.516
44.07,21.494
44.085,21.486
44.1,21.418
44.115,21.363
44.13,21.501
44.145,21.507
44.16,21.43
44.175,21.29
44.19,21.163
44.205,21.308
44.22,21.363
44.235,21.251
44.25,21.431
44.265,21.438
44.28,21.357
44.295,21.465
44.31,21.403
44.325,21.273
44.34,21.166
44.355,21.197
44.37,21.332
44.385,21.38
44.4,21.37
44.415,21.285
44.43,21.266
44.445,21.335
44.46,21.297
44.475,21.217
44.49,21.232
44.505,21.194
44.52,21.145
44.535,21.237
44.55,21.158
44.565,21.095
44.58,21.208
44.595,21.252
44.61,21.299
44.625,21.213
44.64,21.222
44.655,21.293
44.67,21.308
44.685,21.159
44.7,21.232
44.715,21.189
44.73,21.055
44.745,21.085
44.76,21.085
44.775,21.051
44.79,20.953
44.805,21.022
44.82,21.144
44.835,21.227
44.85,21.127
44.865,20.953
44.88,21.018
44.895,21.115
44.91,21.182
44.925,21.245
44.94,21.138
44.955,21.198
44.97,21.182
44.985,21.154
45,21.096
45.015,21.084
45.03,21.125
45.045,21.198
45.06,21.096
45.075,21.24
45.09,21.181
45.105,21.11
45.12,21.093
45.135,20.915
45.15,20.962
45.165,20.991
45.18,21.006
45.195,21.087
45.21,21.076
45.225,20.994
45.24,21.077
45.255,20.972
45.27,21.044
45.285,21.149
45.3,21.115
45.315,21.108
45.33,20.987
45.345,21.025
45.36,21.107
45.375,20.993
45.39,20.997
45.405,21.043
45.42,21.005
45.435,21.059
45.45,20.946
45.465,20.921
45.48,20.938
45.495,21.065
45.51,21.088
45.525,21.029
45.54,20.873
45.555,20.862
45.57,20.916
45.585,20.82
45.6,20.83
45.615,20.893
45.63,20.919
45.645,20.944
45.66,20.9
45.675,20.78
45.69,21.046
45.705,21.026
45.72,20.942
45.735,20.921
45.75,20.914
45.765,20.935
45.78,20.993
45.795,20.974
45.81,20.955
45.825,21.024
45.84,20.964
45.855,20.893
45.87,20.977
45.885,20.85
45.9,20.848
45.915,20.962
45.93,21
45.945,20.987
45.96,21.007
45.975,21.006
45.99,20.904
46.005,20.981
46.02,20.924
46.035,20.823
46.05,20.757
46.065,20.806
46.08,20.794
46.095,20.888
46.11,20.839
46.125,20.872
46.14,20.939
46.155,20.713
46.17,20.699
46.185,20.852
46.2,20.903
46.215,20.803
46.23,20.749
46.245,20.876
46.26,20.776
46.275,20.716
46.29,20.83
46.305,20.89
46.32,20.868
46.335,20.869
46.35,20.879
46.365,20.764
46.38,20.732
46.395,20.82
46.41,20.864
46.425,20.803
46.44,20.773
46.455,20.767
46.47,20.823
46.485,20.916
46.5,20.742
46.515,20.644
46.53,20.75
46.545,20.856
46.56,20.897
46.575,20.862
46.59,20.865
46.605,20.799
46.62,20.759
46.635,20.86
46.65,20.81
46.665,20.678
46.68,20.672
46.695,20.727
46.71,20.861
46.725,20.851
46.74,20.83
46.755,20.793
46.77,20.832
46.785,20.86
46.8,20.768
46.815,20.659
46.83,20.718
46.845,20.758
46.86,20.821
46.875,20.7
46.89,20.629
46.905,20.572
46.92,20.755
46.935,20.838
46.95,20.838
46.965,20.772
46.98,20.599
46.995,20.583
47.01,20.749
47.025,20.797
47.04,20.819
47.055,20.806
47.07,20.748
47.085,20.775
47.1,20.764
47.115,20.707
47.13,20.78
47.145,20.626
47.16,20.699
47.175,20.797
47.19,20.805
47.205,20.87
47.22,20.776
47.235,20.687
47.25,20.617
47.265,20.538
47.28,20.57
47.295,20.591
47.31,20.573
47.325,20.715
47.34,20.636
47.355,20.598
47.37,20.611
47.385,20.651
47.4,20.49
47.415,20.626
47.43,20.741
47.445,20.694
47.46,20.674
47.475,20.62
47.49,20.591
47.505,20.561
47.52,20.464
47.535,20.477
47.55,20.589
47.565,20.673
47.58,20.664
47.595,20.566
47.61,20.602
47.625,20.531
47.64,20.456
47.655,20.411
47.67,20.404
47.685,20.453
47.7,20.496
47.715,20.539
47.73,20.481
47.745,20.498
47.76,20.611
47.775,20.554
47.79,20.564
47.805,20.539
47.82,20.516
47.835,20.498
47.85,20.641
47.865,20.68
47.88,20.645
47.895,20.581
47.91,20.637
47.925,20.525
47.94,20.5
47.955,20.486
47.97,20.3
47.985,20.361
48,20.376
48.015,20.457
48.03,20.491
48.045,20.452
48.06,20.507
48.075,20.391
48.09,20.437
48.105,20.56
48.12,20.577
48.135,20.627
48.15,20.608
48.165,20.34
48.18,20.288
48.195,20.324
48.21,20.337
48.225,20.338
48.24,20.506
48.255,20.491
48.27,20.417
48.285,20.588
48.3,20.521
48.315,20.402
48.33,20.348
48.345,20.283
48.36,20.416
48.375,20.388
48.39,20.404
48.405,20.45
48.42,20.361
48.435,20.331
48.45,20.429
48.465,20.413
48.48,20.344
48.495,20.243
48.51,20.303
48.525,20.43
48.54,20.472
48.555,20.314
48.57,20.348
48.585,20.313
48.6,20.276
48.615,20.317
48.63,20.242
48.645,20.266
48.66,20.326
48.675,20.386
48.69,20.43
48.705,20.355
48.72,20.296
48.735,20.364
48.75,20.501
48.765,20.387
48.78,20.269
48.795,20.26
48.81,20.178
48.825,20.309
48.84,20.197
48.855,20.153
48.87,20.167
48.885,20.222
48.9,20.415
48.915,20.515
48.93,20.343
48.945,20.283
48.96,20.315
48.975,20.143
48.99,20.215
49.005,20.248
49.02,20.25
49.035,20.082
49.05,20.084
49.065,20.207
49.08,20.146
49.095,20.073
49.11,20.14
49.125,20.189
49.14,20.261
49.155,20.232
49.17,20.139
49.185,20.121
49.2,20.258
49.215,20.42
49.23,20.376
49.245,20.345
49.26,20.299
49.275,20.138
49.29,20.119
49.305,20.19
49.32,20.201
49.335,20.124
49.35,20.132
49.365,20.192
49.38,20.108
49.395,20.12
49.41,20.096
49.425,20.108
49.44,20.213
49.455,20.105
49.47,20.002
49.485,20.08
49.5,20.129
49.515,20.104
49.53,20.151
49.545,20.083
49.56,20.169
49.575,20.124
49.59,20.214
49.605,20.211
49.62,20.075
49.635,19.963
49.65,19.947
49.665,20.025
49.68,20.192
49.695,20.197
49.71,20.117
49.725,20.026
49.74,20.024
49.755,20.014
49.77,20.099
49.785,20.16
49.8,20.026
49.815,19.996
49.83,19.934
49.845,20.007
49.86,20.164
49.875,20.123
49.89,19.978
49.905,20.018
49.92,20.111
49.935,20.104
49.95,20.096
49.965,20.143
49.98,20.199
49.995,19.985
50.01,19.882
50.025,19.999
50.04,20.077
50.055,20.081
50.07,19.988
50.085,19.83
50.1,19.893
50.115,20.092
50.13,20.175
50.145,20.128
50.16,20.01
50.175,20.054
50.19,19.968
50.205,19.963
50.22,20.092
50.235,20.115
50.25,20.03
50.265,19.837
50.28,19.909
50.295,19.948
50.31,19.994
50.325,20.022
50.34,20.057
50.355,20.153
50.37,20.105
50.385,20.106
50.4,19.922
50.415,19.872
50.43,19.896
50.445,19.979
50.46,20.099
50.475,20.014
50.49,19.924
50.505,19.887
50.52,19.95
50.535,19.872
50.55,19.894
50.565,19.994
50.58,19.979
50.595,20.045
50.61,20.025
50.625,19.986
50.64,19.924
50.655,19.931
50.67,19.952
50.685,19.809
50.7,19.839
50.715,20.039
50.73,20.03
50.745,20.014
50.76,19.993
50.775,19.971
50.79,19.98
50.805,19.984
50.82,19.929
50.835,19.852
50.85,19.937
50.865,20.098
50.88,20
50.895,19.906
50.91,19.934
50.925,19.927
50.94,19.951
50.955,19.701
50.97,19.806
50.985,19.899
51,19.889
51.015,19.955
51.03,19.923
51.045,19.823
51.06,19.686
51.075,19.771
51.09,19.861
51.105,19.949
51.12,19.912
51.135,19.785
51.15,19.959
51.165,19.962
51.18,19.793
51.195,19.765
51.21,19.812
51.225,19.914
51.24,19.719
51.255,19.719
51.27,19.875
51.285,19.832
51.3,19.864
51.315,19.806
51.33,19.789
51.345,19.778
51.36,19.787
51.375,20.053
51.39,19.993
51.405,19.884
51.42,19.785
51.435,19.814
51.45,19.646
51.465,19.584
51.48,19.742
51.495,19.817
51.51,19.792
51.525,19.909
51.54,19.911
51.555,19.918
51.57,19.83
51.585,19.857
51.6,19.809
51.615,19.551
51.63,19.556
51.645,19.713
51.66,19.793
51.675,19.71
51.69,19.769
51.705,19.795
51.72,19.732
51.735,19.689
51.75,19.675
51.765,19.708
51.78,19.787
51.795,19.811
51.81,19.683
51.825,19.673
51.84,19.659
51.855,19.727
51.87,19.884
51.885,19.777
51.9,19.714
51.915,19.635
51.93,19.76
51.945,19.81
51.96,19.807
51.975,19.801
51.99,19.81
52.005,19.812
52.02,19.717
52.035,19.722
52.05,19.877
52.065,20.001
52.08,19.908
52.095,19.648
52.11,19.586
52.125,19.731
52.14,19.644
52.155,19.626
52.17,19.631
52.185,19.607
52.2,19.747
52.215,19.769
52.23,19.692
52.245,19.605
52.26,19.653
52.275,19.735
52.29,19.816
52.305,19.765
52.32,19.61
52.335,19.64
52.35,19.743
52.365,19.799
52.38,19.806
52.395,19.763
52.41,19.641
52.425,19.619
52.44,19.75
52.455,19.618
52.47,19.69
52.485,19.69
52.5,19.683
52.515,19.666
52.53,19.581
52.545,19.802
52.56,19.725
52.575,19.62
52.59,19.658
52.605,19.499
52.62,19.475
52.635,19.74
52.65,19.758
52.665,19.716
52.68,19.643
52.695,19.683
52.71,19.72
52.725,19.663
52.74,19.756
52.755,19.696
52.77,19.74
52.785,19.775
52.8,19.719
52.815,19.638
52.83,19.481
52.845,19.496
52.86,19.607
52.875,19.61
52.89,19.769
52.905,19.801
52.92,19.769
52.935,19.715
52.95,19.806
52.965,19.964
52.98,19.919
52.995,19.884
53.01,19.761
53.025,19.7
53.04,19.779
53.055,19.949
53.07,20.048
53.085,20.026
53.1,19.935
53.115,20.008
53.13,20.059
53.145,20.034
53.16,20.109
53.175,20.088
53.19,20.243
53.205,20.216
53.22,20.226
53.235,20.189
53.25,20.23
53.265,20.3
53.28,20.294
53.295,20.298
53.31,20.292
53.325,20.448
53.34,20.654
53.355,20.661
53.37,20.457
53.385,20.315
53.4,20.385
53.415,20.298
53.43,20.421
53.445,20.526
53.46,20.457
53.475,20.428
53.49,20.467
53.505,20.434
53.52,20.508
53.535,20.443
53.55,20.285
53.565,20.217
53.58,20.113
53.595,20.094
53.61,20.18
53.625,20.258
53.64,20.323
53.655,20.238
53.67,20.104
53.685,20.205
53.7,20.299
53.715,20.188
53.73,20.055
53.745,20.072
53.76,20.073
53.775,19.932
53.79,19.835
53.805,19.932
53.82,19.76
53.835,19.853
53.85,19.911
53.865,19.954
53.88,19.837
53.895,19.631
53.91,19.544
53.925,19.622
53.94,19.76
53.955,19.659
53.97,19.58
53.985,19.672
54,19.571
54.015,19.455
54.03,19.529
54.045,19.444
54.06,19.449
54.075,19.563
54.09,19.502
54.105,19.445
54.12,19.438
54.135,19.453
54.15,19.46
54.165,19.423
54.18,19.443
54.195,19.331
54.21,19.425
54.225,19.438
54.24,19.485
54.255,19.374
54.27,19.272
54.285,19.289
54.3,19.256
54.315,19.29
54.33,19.329
54.345,19.538
54.36,19.522
54.375,19.37
54.39,19.333
54.405,19.366
54.42,19.446
54.435,19.346
54.45,19.248
54.465,19.265
54.48,19.348
54.495,19.357
54.51,19.366
54.525,19.35
54.54,19.211
54.555,19.247
54.57,19.336
54.585,19.404
54.6,19.332
54.615,19.37
54.63,19.46
54.645,19.463
54.66,19.168
54.675,19.198
54.69,19.324
54.705,19.244
54.72,19.222
54.735,19.333
54.75,19.311
54.765,19.302
54.78,19.337
54.795,19.329
54.81,19.282
54.825,19.294
54.84,19.384
54.855,19.311
54.87,19.208
54.885,19.269
54.9,19.204
54.915,19.24
54.93,19.464
54.945,19.473
54.96,19.355
54.975,19.343
54.99,19.449
55.005,19.423
55.02,19.242
55.035,19.123
55.05,19.203
55.065,19.237
55.08,19.202
55.095,19.285
55.11,19.209
55.125,19.175
55.14,19.082
55.155,19.107
55.17,19.208
55.185,19.086
55.2,19.049
55.215,19.315
55.23,19.391
55.245,19.36
55.26,19.253
55.275,19.171
55.29,19.135
55.305,19.202
55.32,19.223
55.335,19.326
55.35,19.334
55.365,19.269
55.38,19.284
55.395,19.238
55.41,19.14
55.425,19.091
55.44,19.193
55.455,19.111
55.47,19.165
55.485,19.23
55.5,19.262
55.515,19.225
55.53,19.276
55.545,19.286
55.56,19.204
55.575,19.27
55.59,19.325
55.605,19.211
55.62,19.199
55.635,19.178
55.65,19.291
55.665,19.263
55.68,19.229
55.695,19.168
55.71,19.118
55.725,19.195
55.74,19.282
55.755,19.224
55.77,19.18
55.785,19.229
55.8,19.121
55.815,19.266
55.83,19.367
55.845,19.25
55.86,19.123
55.875,19.139
55.89,19.287
55.905,19.392
55.92,19.306
55.935,19.167
55.95,19.117
55.965,19.225
55.98,19.167
55.995,19.079
56.01,19
56.025,19.107
56.04,19.269
56.055,19.271
56.07,19.258
56.085,19.216
56.1,19.223
56.115,19.25
56.13,19.241
56.145,19.384
56.16,19.265
56.175,19.222
56.19,19.074
56.205,19.218
56.22,19.384
56.235,19.301
56.25,19.234
56.265,19.313
56.28,19.267
56.295,19.271
56.31,19.371
56.325,19.378
56.34,19.338
56.355,19.33
56.37,19.464
56.385,19.448
56.4,19.443
56.415,19.436
56.43,19.469
56.445,19.659
56.46,19.703
56.475,19.735
56.49,19.834
56.505,19.914
56.52,19.85
56.535,19.893
56.55,20.031
56.565,20.086
56.58,20.193
56.595,20.208
56.61,20.206
56.625,20.241
56.64,20.474
56.655,20.599
56.67,20.581
56.685,20.488
56.7,20.702
56.715,20.775
56.73,20.85
56.745,21.031
56.76,21.135
56.775,21.193
56.79,21.291
56.805,21.205
56.82,21.371
56.835,21.593
56.85,21.572
56.865,21.617
56.88,21.636
56.895,21.723
56.91,21.754
56.925,21.835
56.94,21.912
56.955,21.939
56.97,21.937
56.985,21.891
57,21.982
57.015,21.97
57.03,21.874
57.045,21.814
57.06,21.827
57.075,21.822
57.09,21.766
57.105,21.725
57.12,21.664
57.135,21.605
57.15,21.643
57.165,21.488
57.18,21.321
57.195,21.305
57.21,21.277
57.225,21.273
57.24,21.031
57.255,20.897
57.27,20.824
57.285,20.835
57.3,20.738
57.315,20.695
57.33,20.562
57.345,20.415
57.36,20.45
57.375,20.342
57.39,20.328
57.405,20.217
57.42,19.838
57.435,19.82
57.45,19.976
57.465,19.847
57.48,19.765
57.495,19.713
57.51,19.57
57.525,19.429
57.54,19.454
57.555,19.397
57.57,19.424
57.585,19.383
57.6,19.353
57.615,19.29
57.63,19.193
57.645,19.118
57.66,19.182
57.675,19.239
57.69,19.24
57.705,19.06
57.72,18.998
57.735,18.965
57.75,19.019
57.765,18.963
57.78,18.846
57.795,18.904
57.81,18.986
57.825,18.883
57.84,18.811
57.855,18.726
57.87,18.708
57.885,18.851
57.9,18.982
57.915,18.824
57.93,18.815
57.945,18.985
57.96,18.899
57.975,18.761
57.99,18.794
58.005,18.705
58.02,18.631
58.035,18.645
58.05,18.736
58.065,18.873
58.08,18.823
58.095,18.89
58.11,19.033
58.125,18.85
58.14,18.715
58.155,18.712
58.17,18.806
58.185,18.784
58.2,18.739
58.215,18.709
58.23,18.675
58.245,18.796
58.26,18.851
58.275,18.85
58.29,18.839
58.305,18.715
58.32,18.622
58.335,18.761
58.35,18.857
58.365,18.752
58.38,18.799
58.395,18.723
58.41,18.672
58.425,18.707
58.44,18.777
58.455,18.607
58.47,18.623
58.485,18.763
58.5,18.804
58.515,18.713
58.53,18.492
58.545,18.494
58.56,18.521
58.575,18.666
58.59,18.699
58.605,18.792
58.62,18.724
58.635,18.652
58.65,18.716
58.665,18.618
58.68,18.598
58.695,18.638
58.71,18.66
58.725,18.544
58.74,18.541
58.755,18.578
58.77,18.626
58.785,18.588
58.8,18.59
58.815,18.563
58.83,18.45
58.845,18.416
58.86,18.427
58.875,18.504
58.89,18.592
58.905,18.52
58.92,18.534
58.935,18.668
58.95,18.622
58.965,18.674
58.98,18.696
58.995,18.522
59.01,18.567
59.025,18.618
59.04,18.491
59.055,18.492
59.07,18.474
59.085,18.472
59.1,18.417
59.115,18.422
59.13,18.452
59.145,18.524
59.16,18.531
59.175,18.386
59.19,18.522
59.205,18.522
59.22,18.526
59.235,18.503
59.25,18.404
59.265,18.427
59.28,18.468
59.295,18.535
59.31,18.453
59.325,18.362
59.34,18.533
59.355,18.519
59.37,18.519
59.385,18.54
59.4,18.629
59.415,18.537
59.43,18.476
59.445,18.441
59.46,18.563
59.475,18.571
59.49,18.437
59.505,18.406
59.52,18.41
59.535,18.401
59.55,18.347
59.565,18.42
59.58,18.492
59.595,18.396
59.61,18.359
59.625,18.36
59.64,18.431
59.655,18.581
59.67,18.637
59.685,18.381
59.7,18.385
59.715,18.509
59.73,18.508
59.745,18.457
59.76,18.374
59.775,18.281
59.79,18.351
59.805,18.453
59.82,18.455
59.835,18.444
59.85,18.627
59.865,18.614
59.88,18.399
59.895,18.317
59.91,18.381
59.925,18.352
59.94,18.414
59.955,18.432
59.97,18.419
59.985,18.316
60,18.347
60.015,18.315
60.03,18.348
60.045,18.359
60.06,18.329
60.075,18.35
60.09,18.367
60.105,18.282
60.12,18.293
60.135,18.41
60.15,18.554
60.165,18.469
60.18,18.392
60.195,18.415
60.21,18.402
60.225,18.411
60.24,18.397
60.255,18.374
60.27,18.375
60.285,18.428
60.3,18.269
60.315,18.262
60.33,18.398
60.345,18.355
60.36,18.419
60.375,18.473
60.39,18.48
60.405,18.505
60.42,18.377
60.435,18.184
60.45,18.426
60.465,18.44
60.48,18.342
60.495,18.422
60.51,18.309
60.525,18.278
60.54,18.265
60.555,18.322
60.57,18.501
60.585,18.416
60.6,18.411
60.615,18.262
60.63,18.253
60.645,18.229
60.66,18.271
60.675,18.42
60.69,18.391
60.705,18.255
60.72,18.122
60.735,18.259
60.75,18.358
60.765,18.366
60.78,18.256
60.795,18.269
60.81,18.156
60.825,18.206
60.84,18.264
60.855,18.315
60.87,18.26
60.885,18.25
60.9,18.344
60.915,18.274
60.93,18.377
60.945,18.557
60.96,18.53
60.975,18.343
60.99,18.143
61.005,18.287
61.02,18.292
61.035,18.28
61.05,18.299
61.065,18.383
61.08,18.292
61.095,18.222
61.11,18.249
61.125,18.354
61.14,18.352
61.155,18.402
61.17,18.359
61.185,18.272
61.2,18.221
61.215,18.24
61.23,18.344
61.245,18.263
61.26,18.173
61.275,18.246
61.29,18.35
61.305,18.469
61.32,18.429
61.335,18.377
61.35,18.373
61.365,18.358
61.38,18.473
61.395,18.359
61.41,18.212
61.425,18.272
61.44,18.255
61.455,18.269
61.47,18.399
61.485,18.331
61.5,18.297
61.515,18.21
61.53,18.21
61.545,18.301
61.56,18.297
61.575,18.296
61.59,18.343
61.605,18.242
61.62,18.265
61.635,18.308
61.65,18.301
61.665,18.373
61.68,18.315
61.695,18.345
61.71,18.338
61.725,18.227
61.74,18.187
61.755,18.352
61.77,18.432
61.785,18.372
61.8,18.361
61.815,18.49
61.83,18.39
61.845,18.358
61.86,18.4
61.875,18.522
61.89,18.568
61.905,18.52
61.92,18.619
61.935,18.736
61.95,18.777
61.965,18.696
61.98,18.663
61.995,18.703
62.01,18.901
62.025,18.94
62.04,18.978
62.055,19.054
62.07,18.984
62.085,18.901
62.1,19.12
62.115,19.237
62.13,19.341
62.145,19.428
62.16,19.493
62.175,19.671
62.19,19.833
62.205,19.846
62.22,19.762
62.235,19.84
62.25,20.144
62.265,20.236
62.28,20.371
62.295,20.432
62.31,20.521
62.325,20.599
62.34,20.71
62.355,20.835
62.37,21.121
62.385,21.134
62.4,21.195
62.415,21.408
62.43,21.508
62.445,21.334
62.46,21.468
62.475,21.803
62.49,21.881
62.505,21.891
62.52,21.85
62.535,21.797
62.55,21.958
62.565,21.981
62.58,21.979
62.595,21.981
62.61,22.002
62.625,21.951
62.64,22.052
62.655,22.04
62.67,21.845
62.685,21.783
62.7,21.881
62.715,21.872
62.73,21.703
62.745,21.655
62.76,21.524
62.775,21.381
62.79,21.334
62.805,21.248
62.82,21.245
62.835,21.065
62.85,20.863
62.865,20.753
62.88,20.616
62.895,20.632
62.91,20.58
62.925,20.43
62.94,20.14
62.955,20.023
62.97,20.076
62.985,19.927
63,19.757
63.015,19.619
63.03,19.485
63.045,19.395
63.06,19.328
63.075,19.17
63.09,19.119
63.105,18.976
63.12,18.96
63.135,18.996
63.15,18.895
63.165,18.923
63.18,18.858
63.195,18.761
63.21,18.681
63.225,18.644
63.24,18.501
63.255,18.458
63.27,18.434
63.285,18.36
63.3,18.32
63.315,18.268
63.33,18.368
63.345,18.287
63.36,18.284
63.375,18.212
63.39,18.2
63.405,18.212
63.42,18.257
63.435,18.159
63.45,18.217
63.465,18.195
63.48,18.307
63.495,18.34
63.51,18.094
63.525,17.974
63.54,18.119
63.555,18.103
63.57,17.976
63.585,17.974
63.6,18.044
63.615,18.131
63.63,18.09
63.645,17.976
63.66,18.02
63.675,18.059
63.69,17.992
63.705,17.954
63.72,17.971
63.735,17.988
63.75,17.999
63.765,17.934
63.78,18.116
63.795,18.015
63.81,17.837
63.825,17.83
63.84,17.913
63.855,17.929
63.87,17.851
63.885,17.91
63.9,18.026
63.915,17.971
63.93,17.99
63.945,17.868
63.96,17.849
63.975,17.818
63.99,17.873
64.005,17.921
64.02,17.956
64.035,17.978
64.05,17.797
64.065,17.815
64.08,17.906
64.095,17.918
64.11,17.818
64.125,17.855
64.14,17.815
64.155,17.888
64.17,17.907
64.185,17.751
64.2,17.747
64.215,17.823
64.23,17.773
64.245,17.819
64.26,17.72
64.275,17.799
64.29,17.884
64.305,17.796
64.32,17.798
64.335,17.728
64.35,17.737
64.365,17.791
64.38,17.79
64.395,17.797
64.41,17.733
64.425,17.778
64.44,17.702
64.455,17.764
64.47,17.867
64.485,17.814
64.5,17.623
64.515,17.586
64.53,17.774
64.545,17.816
64.56,17.755
64.575,17.745
64.59,17.749
64.605,17.711
64.62,17.88
64.635,17.85
64.65,17.734
64.665,17.845
64.68,17.857
64.695,17.689
64.71,17.631
64.725,17.706
64.74,17.703
64.755,17.776
64.77,17.813
64.785,17.763
64.8,17.744
64.815,17.666
64.83,17.614
64.845,17.677
64.86,17.661
64.875,17.71
64.89,17.676
64.905,17.667
64.92,17.693
64.935,17.657
64.95,17.675
64.965,17.689
64.98,17.742
64.995,17.584
65.01,17.643
65.025,17.732
65.04,17.639
65.055,17.572
65.07,17.621
65.085,17.666
65.1,17.772
65.115,17.65
65.13,17.591
65.145,17.614
65.16,17.664
65.175,17.641
65.19,17.659
65.205,17.583
65.22,17.62
65.235,17.597
65.25,17.581
65.265,17.604
65.28,17.586
65.295,17.598
65.31,17.707
65.325,17.773
65.34,17.629
65.355,17.53
65.37,17.534
65.385,17.656
65.4,17.615
65.415,17.669
65.43,17.661
65.445,17.618
65.46,17.565
65.475,17.547
65.49,17.572
65.505,17.603
65.52,17.581
65.535,17.583
65.55,17.637
65.565,17.604
65.58,17.544
65.595,17.625
65.61,17.572
65.625,17.574
65.64,17.62
65.655,17.501
65.67,17.51
65.685,17.571
65.7,17.474
65.715,17.538
65.73,17.571
65.745,17.625
65.76,17.687
65.775,17.648
65.79,17.536
65.805,17.584
65.82,17.661
65.835,17.521
65.85,17.388
65.865,17.442
65.88,17.575
65.895,17.507
65.91,17.565
65.925,17.666
65.94,17.639
65.955,17.547
65.97,17.492
65.985,17.52
66,17.644
66.015,17.56
66.03,17.488
66.045,17.506
66.06,17.513
66.075,17.593
66.09,17.541
66.105,17.46
66.12,17.513
66.135,17.568
66.15,17.624
66.165,17.625
66.18,17.507
66.195,17.514
66.21,17.523
66.225,17.489
66.24,17.633
66.255,17.628
66.27,17.48
66.285,17.409
66.3,17.429
66.315,17.372
66.33,17.395
66.345,17.524
66.36,17.444
66.375,17.515
66.39,17.468
66.405,17.466
66.42,17.412
66.435,17.505
66.45,17.483
66.465,17.387
66.48,17.369
66.495,17.461
66.51,17.515
66.525,17.477
66.54,17.31
66.555,17.412
66.57,17.563
66.585,17.482
66.6,17.425
66.615,17.457
66.63,17.39
66.645,17.354
66.66,17.448
66.675,17.43
66.69,17.5
66.705,17.504
66.72,17.428
66.735,17.33
66.75,17.347
66.765,17.425
66.78,17.325
66.795,17.318
66.81,17.402
66.825,17.259
66.84,17.199
66.855,17.274
66.87,17.365
66.885,17.409
66.9,17.44
66.915,17.442
66.93,17.429
66.945,17.428
66.96,17.255
66.975,17.243
66.99,17.305
67.005,17.316
67.02,17.281
67.035,17.334
67.05,17.36
67.065,17.385
67.08,17.278
67.095,17.326
67.11,17.287
67.125,17.285
67.14,17.291
67.155,17.194
67.17,17.295
67.185,17.39
67.2,17.393
67.215,17.347
67.23,17.347
67.245,17.302
67.26,17.277
67.275,17.275
67.29,17.294
67.305,17.308
67.32,17.291
67.335,17.206
67.35,17.252
67.365,17.348
67.38,17.347
67.395,17.31
67.41,17.228
67.425,17.263
67.44,17.31
67.455,17.194
67.47,17.275
67.485,17.219
67.5,17.223
67.515,17.314
67.53,17.309
67.545,17.21
67.56,17.297
67.575,17.238
67.59,17.169
67.605,17.284
67.62,17.318
67.635,17.308
67.65,17.232
67.665,17.163
67.68,17.343
67.695,17.437
67.71,17.365
67.725,17.253
67.74,17.267
67.755,17.302
67.77,17.21
67.785,17.272
67.8,17.335
67.815,17.383
67.83,17.298
67.845,17.281
67.86,17.237
67.875,17.175
67.89,17.234
67.905,17.237
67.92,17.188
67.935,17.275
67.95,17.395
67.965,17.336
67.98,17.324
67.995,17.299
68.01,17.229
68.025,17.278
68.04,17.306
68.055,17.273
68.07,17.211
68.085,17.284
68.1,17.153
68.115,17.161
68.13,17.127
68.145,17.056
68.16,17.147
68.175,17.144
68.19,17.196
68.205,17.125
68.22,17
68.235,17.094
68.25,17.117
68.265,17.119
68.28,17.128
68.295,17.211
68.31,17.25
68.325,17.189
68.34,17.204
68.355,17.226
68.37,17.25
68.385,17.269
68.4,17.108
68.415,16.943
68.43,17.069
68.445,17.116
68.46,17.095
68.475,17.133
68.49,17.075
68.505,17.155
68.52,17.088
68.535,17.07
68.55,17.101
68.565,17.03
68.58,16.929
68.595,17.065
68.61,17.198
68.625,17.104
68.64,17.087
68.655,17.113
68.67,17.097
68.685,17.141
68.7,17.119
68.715,17.167
68.73,17.203
68.745,17.095
68.76,17.189
68.775,17.12
68.79,17.199
68.805,17.296
68.82,17.161
68.835,17.117
68.85,17.112
68.865,16.938
68.88,16.945
68.895,17.018
68.91,17.029
68.925,16.959
68.94,16.961
68.955,16.991
68.97,16.977
68.985,16.984
69,16.929
69.015,16.982
69.03,17.048
69.045,17.09
69.06,17.124
69.075,17.023
69.09,17.075
69.105,16.995
69.12,17.153
69.135,17.22
69.15,17.129
69.165,17.12
69.18,17.191
69.195,17.059
69.21,17.037
69.225,17.092
69.24,17.061
69.255,17.012
69.27,16.984
69.285,17.118
69.3,17.091
69.315,17.083
69.33,17.059
69.345,17.046
69.36,16.977
69.375,17.061
69.39,17.1
69.405,17.146
69.42,17.192
69.435,17.089
69.45,16.909
69.465,16.951
69.48,17.006
69.495,17.05
69.51,17.14
69.525,17.036
69.54,16.983
69.555,16.983
69.57,16.971
69.585,17.019
69.6,17.025
69.615,16.987
69.63,16.954
69.645,16.904
69.66,16.945
69.675,17.017
69.69,16.971
69.705,16.958
69.72,17.04
69.735,17.036
69.75,17.043
69.765,16.931
69.78,16.903
69.795,16.895
69.81,16.818
69.825,16.93
69.84,17.071
69.855,17.036
69.87,16.865
69.885,16.912
69.9,17.024
69.915,17.051
69.93,16.97
69.945,17.018
69.96,17.04
69.975,17.028
69.99,16.999
70.005,17.021
70.02,17.022
70.035,17.041
70.05,17.108
70.065,17.115
70.08,17.209
70.095,17.012
70.11,16.836
70.125,16.874
70.14,16.796
70.155,16.889
70.17,16.937
70.185,16.878
70.2,16.91
70.215,16.898
70.23,16.938
70.245,17.032
70.26,16.874
70.275,16.869
70.29,16.965
70.305,17.011
70.32,17.027
70.335,17.065
70.35,16.949
70.365,17.037
70.38,16.962
70.395,17.007
70.41,17.071
70.425,17.081
70.44,16.999
70.455,16.957
70.47,17.021
70.485,16.97
70.5,17.072
70.515,17.15
70.53,17.087
70.545,17.141
70.56,16.944
70.575,16.92
70.59,17.037
70.605,17.15
70.62,17.044
70.635,17.037
70.65,16.939
70.665,16.904
70.68,17.153
70.695,17.218
70.71,17.015
70.725,17.061
70.74,17.112
70.755,17.026
70.77,17.127
70.785,17.158
70.8,17.085
70.815,17.093
70.83,17.052
70.845,17.137
70.86,17.065
70.875,17.105
70.89,17.144
70.905,17.155
70.92,17.144
70.935,17.019
70.95,17.079
70.965,17.113
70.98,17.254
70.995,17.213
71.01,17.057
71.025,17.053
71.04,17.194
71.055,17.148
71.07,17.082
71.085,17.215
71.1,17.192
71.115,17.051
71.13,17.015
71.145,16.961
71.16,16.916
71.175,17.103
71.19,17.095
71.205,16.981
71.22,16.911
71.235,16.924
71.25,17.048
71.265,17.06
71.28,17.033
71.295,16.944
71.31,16.95
71.325,16.937
71.34,16.937
71.355,17.012
71.37,17.068
71.385,16.96
71.4,16.981
71.415,17.015
71.43,17.04
71.445,16.908
71.46,16.918
71.475,16.918
71.49,16.824
71.505,16.835
71.52,16.835
71.535,16.954
71.55,16.961
71.565,16.932
71.58,16.963
71.595,16.938
71.61,16.814
71.625,16.788
71.64,16.847
71.655,16.819
71.67,16.694
71.685,16.669
71.7,16.74
71.715,16.798
71.73,16.746
71.745,16.743
71.76,16.838
71.775,16.717
71.79,16.736
71.805,16.689
71.82,16.703
71.835,16.782
71.85,16.765
71.865,16.75
71.88,16.762
71.895,16.649
71.91,16.615
71.925,16.719
71.94,16.808
71.955,16.749
71.97,16.717
71.985,16.732
72,16.814
72.015,16.904
72.03,16.78
72.045,16.681
72.06,16.666
72.075,16.75
72.09,16.694
72.105,16.718
72.12,16.644
72.135,16.677
72.15,16.773
72.165,16.691
72.18,16.622
72.195,16.734
72.21,16.721
72.225,16.621
72.24,16.58
72.255,16.603
72.27,16.741
72.285,16.804
72.3,16.751
72.315,16.726
72.33,16.775
72.345,16.869
72.36,16.798
72.375,16.765
72.39,16.717
72.405,16.672
72.42,16.674
72.435,16.752
72.45,16.665
72.465,16.606
72.48,16.704
72.495,16.703
72.51,16.675
72.525,16.634
72.54,16.618
72.555,16.657
72.57,16.71
72.585,16.696
72.6,16.622
72.615,16.576
72.63,16.668
72.645,16.607
72.66,16.584
72.675,16.72
72.69,16.658
72.705,16.52
72.72,16.595
72.735,16.705
72.75,16.642
72.765,16.663
72.78,16.697
72.795,16.835
72.81,16.756
72.825,16.678
72.84,16.796
72.855,16.715
72.87,16.667
72.885,16.773
72.9,16.594
72.915,16.577
72.93,16.761
72.945,16.693
72.96,16.629
72.975,16.574
72.99,16.596
73.005,16.594
73.02,16.622
73.035,16.655
73.05,16.635
73.065,16.72
73.08,16.645
73.095,16.665
73.11,16.553
73.125,16.468
73.14,16.659
73.155,16.597
73.17,16.551
73.185,16.58
73.2,16.57
73.215,16.691
73.23,16.737
73.245,16.737
73.26,16.708
73.275,16.668
73.29,16.797
73.305,16.704
73.32,16.642
73.335,16.615
73.35,16.618
73.365,16.664
73.38,16.717
73.395,16.756
73.41,16.755
73.425,16.726
73.44,16.618
73.455,16.618
73.47,16.661
73.485,16.58
73.5,16.704
73.515,16.776
73.53,16.646
73.545,16.731
73.56,16.697
73.575,16.765
73.59,16.834
73.605,16.835
73.62,16.845
73.635,16.905
73.65,16.77
73.665,16.785
73.68,16.895
73.695,16.841
73.71,16.909
73.725,17.032
73.74,17.086
73.755,17.091
73.77,17.131
73.785,17.088
73.8,17.067
73.815,17.067
73.83,17.056
73.845,17.091
73.86,17.056
73.875,17.121
73.89,17.167
73.905,17.154
73.92,16.968
73.935,16.916
73.95,17.043
73.965,17.145
73.98,17.21
73.995,17.08
74.01,17.076
74.025,17.119
74.04,17.215
74.055,17.207
74.07,17.112
74.085,17.066
74.1,17.07
74.115,17.075
74.13,17.145
74.145,17.056
74.16,17.034
74.175,17.023
74.19,17.114
74.205,17
74.22,17.106
74.235,17.31
74.25,17.116
74.265,16.883
74.28,16.854
74.295,17.087
74.31,17.065
74.325,17.017
74.34,16.844
74.355,16.769
74.37,16.903
74.385,16.919
74.4,16.882
74.415,16.751
74.43,16.831
74.445,16.816
74.46,16.705
74.475,16.802
74.49,16.882
74.505,16.893
74.52,16.817
74.535,16.74
74.55,16.798
74.565,16.701
74.58,16.666
74.595,16.729
74.61,16.787
74.625,16.721
74.64,16.64
74.655,16.609
74.67,16.771
74.685,16.822
74.7,16.739
74.715,16.748
74.73,16.704
74.745,16.631
74.76,16.715
74.775,16.725
74.79,16.781
74.805,16.678
74.82,16.734
74.835,16.761
74.85,16.743
74.865,16.748
74.88,16.8
74.895,16.763
74.91,16.676
74.925,16.851
74.94,16.88
74.955,16.733
74.97,16.687
74.985,16.787
75,16.771
75.015,16.559
75.03,16.472
75.045,16.557
75.06,16.336
75.075,16.066
75.09,16.119
75.105,16.387
75.12,16.345
75.135,16.143
75.15,15.917
75.165,15.96
75.18,16.03
75.195,16.122
75.21,15.896
75.225,15.915
75.24,16
75.255,15.705
75.27,15.673
75.285,15.589
75.3,15.921
75.315,15.978
75.33,16.309
75.345,14.555
