24.99,0
25.005,0.935
25.02,0.768
25.035,0.516
25.05,0.317
25.065,0.606
25.08,0.78
25.095,0.945
25.11,0.982
25.125,0.654
25.14,0.549
25.155,0.674
25.17,0.596
25.185,0.525
25.2,0.431
25.215,0.228
25.23,0.266
25.245,0.331
25.26,0.391
25.275,0.448
25.29,0.758
25.305,0.854
25.32,0.535
25.335,0.444
25.35,0.296
25.365,0.433
25.38,0.301
25.395,0.257
25.41,0.502
25.425,0.397
25.44,0.362
25.455,0.368
25.47,0.133
25.485,-0.072
25.5,0.106
25.515,0.25
25.53,0.248
25.545,0.381
25.56,0.512
25.575,0.294
25.59,0.258
25.605,0.387
25.62,0.146
25.635,-0.04
25.65,-0.009
25.665,0.289
25.68,0.3
25.695,0.297
25.71,0.4
25.725,0.313
25.74,0.203
25.755,0.378
25.77,0.261
25.785,0.179
25.8,0.229
25.815,0.268
25.83,0.311
25.845,0.165
25.86,0.239
25.875,0.05
25.89,-0.051
25.905,0.278
25.92,0.338
25.935,0.057
25.95,0.007
25.965,0.36
25.98,0.207
25.995,0.235
26.01,0.348
26.025,0.134
26.04,0.116
26.055,0.157
26.07,0.143
26.085,0.114
26.1,0.108
26.115,0.278
26.13,0.378
26.145,0.285
26.16,0.079
26.175,0.065
26.19,0.212
26.205,0.077
26.22,-0.077
26.235,0.152
26.25,0.336
26.265,0.083
26.28,0.011
26.295,0.034
26.31,0.009
26.325,0.016
26.34,-0.002
26.355,0.042
26.37,0.017
26.385,0.066
26.4,0.116
26.415,0.085
26.43,0.036
26.445,0.052
26.46,0.038
26.475,0.116
26.49,0.094
26.505,-0.04
26.52,0.106
26.535,0.03
26.55,0.026
26.565,0.09
26.58,0.05
26.595,0.093
26.61,0.061
26.625,-0.096
26.64,-0.004
26.655,0.011
26.67,0.09
26.685,-0.063
26.7,-0.257
26.715,-0.239
26.73,0.003
26.745,0.019
26.76,0.102
26.775,0.019
26.79,-0.02
26.805,0.03
26.82,0.017
26.835,0.047
26.85,0.065
26.865,-0.045
26.88,-0.103
26.895,-0.063
26.91,-0.051
26.925,-0.046
26.94,0.025
26.955,0.026
26.97,0.178
26.985,0.225
27,0.161
27.015,0.052
27.03,-0.036
27.045,0.197
27.06,0.187
27.075,0.12
27.09,0.057
27.105,0.122
27.12,0.172
27.135,0.091
27.15,-0.039
27.165,-0.011
27.18,0.049
27.195,0.194
27.21,0.065
27.225,0.107
27.24,0.235
27.255,0.098
27.27,-0.001
27.285,-0.03
27.3,0.036
27.315,-0.004
27.33,0.129
27.345,0.146
27.36,0.182
27.375,-0.001
27.39,-0.255
27.405,-0.164
27.42,-0.101
27.435,-0.037
27.45,-0.003
27.465,-0.052
27.48,-0.088
27.495,-0.255
27.51,-0.094
27.525,-0.021
27.54,0.005
27.555,0.072
27.57,0.111
27.585,0.216
27.6,0.045
27.615,-0.025
27.63,0.063
27.645,0.075
27.66,-0.078
27.675,-0.204
27.69,0.004
27.705,0.077
27.72,-0.06
27.735,-0.255
27.75,-0.17
27.765,-0.126
27.78,0.056
27.795,0.038
27.81,0.127
27.825,-0.005
27.84,-0.125
27.855,-0.152
27.87,-0.143
27.885,-0.074
27.9,0.028
27.915,-0.024
27.93,-0.038
27.945,0.024
27.96,-0.125
27.975,-0.104
27.99,-0.157
28.005,-0.116
28.02,-0.217
28.035,-0.202
28.05,0.009
28.065,0.028
28.08,-0.031
28.095,-0.099
28.11,-0.217
28.125,0.003
28.14,0.001
28.155,-0.123
28.17,-0.128
28.185,-0.068
28.2,-0.087
28.215,-0.181
28.23,-0.079
28.245,0.018
28.26,0.157
28.275,0.069
28.29,-0.008
28.305,-0.021
28.32,-0.054
28.335,-0.054
28.35,-0.016
28.365,0.016
28.38,0.004
28.395,0.071
28.41,0.005
28.425,-0.124
28.44,-0.121
28.455,-0.086
28.47,-0.171
28.485,-0.065
28.5,-0.14
28.515,-0.182
28.53,-0.02
28.545,0.039
28.56,-0.041
28.575,-0.127
28.59,-0.102
28.605,-0.027
28.62,-0.1
28.635,-0.103
28.65,0.011
28.665,-0.099
28.68,-0.054
28.695,0.073
28.71,-0.008
28.725,-0.06
28.74,-0.064
28.755,-0.005
28.77,0.021
28.785,-0.002
28.8,-0.064
28.815,0.022
28.83,-0.011
28.845,-0.026
28.86,-0.059
28.875,-0.04
28.89,-0.078
28.905,-0.149
28.92,-0.117
28.935,-0.142
28.95,-0.205
28.965,-0.122
28.98,-0.104
28.995,-0.122
29.01,-0.039
29.025,0.058
29.04,-0.106
29.055,-0.103
29.07,-0.076
29.085,-0.165
29.1,-0.147
29.115,-0.104
29.13,-0.07
29.145,0.144
29.16,-0.013
29.175,-0.221
29.19,-0.254
29.205,-0.139
29.22,-0.063
29.235,-0.115
29.25,-0.043
29.265,-0.052
29.28,-0.149
29.295,-0.108
29.31,-0.029
29.325,0.098
29.34,0.093
29.355,-0.029
29.37,0.077
29.385,0.141
29.4,0.19
29.415,0.121
29.43,-0.023
29.445,0.024
29.46,-0.085
29.475,0.11
29.49,0.141
29.505,0.07
29.52,0.244
29.535,0.357
29.55,0.524
29.565,0.534
29.58,0.427
29.595,0.377
29.61,0.466
29.625,0.551
29.64,0.662
29.655,0.7
29.67,0.665
29.685,0.913
29.7,1.044
29.715,0.963
29.73,1.012
29.745,1.374
29.76,1.572
29.775,1.515
29.79,1.521
29.805,1.653
29.82,1.845
29.835,2.014
29.85,2.155
29.865,2.262
29.88,2.316
29.895,2.534
29.91,2.648
29.925,2.701
29.94,2.838
29.955,2.848
29.97,2.962
29.985,2.976
30,3.109
30.015,3.345
30.03,3.381
30.045,3.437
30.06,3.5
30.075,3.368
30.09,3.432
30.105,3.39
30.12,3.32
30.135,3.335
30.15,3.287
30.165,3.281
30.18,3.385
30.195,3.17
30.21,3.098
30.225,3.061
30.24,2.883
30.255,2.971
30.27,2.873
30.285,2.684
30.3,2.532
30.315,2.442
30.33,2.384
30.345,2.026
30.36,1.881
30.375,1.802
30.39,1.725
30.405,1.45
30.42,1.432
30.435,1.472
30.45,1.366
30.465,1.304
30.48,1.151
30.495,0.976
30.51,0.97
30.525,0.932
30.54,0.738
30.555,0.645
30.57,0.814
30.585,0.579
30.6,0.441
30.615,0.44
30.63,0.458
30.645,0.515
30.66,0.294
30.675,0.297
30.69,0.288
30.705,0.16
30.72,0.137
30.735,0.153
30.75,0.106
30.765,0.002
30.78,-0.036
30.795,0.034
30.81,0.055
30.825,0.12
30.84,0.01
30.855,-0.107
30.87,-0.004
30.885,-0.041
30.9,-0.128
30.915,-0.066
30.93,-0.17
30.945,-0.197
30.96,0.135
30.975,0.139
30.99,-0.014
31.005,-0.169
31.02,-0.092
31.035,-0.017
31.05,-0.076
31.065,-0.049
31.08,-0.176
31.095,-0.105
31.11,-0.035
31.125,-0.061
31.14,-0.083
31.155,-0.119
31.17,-0.11
31.185,-0.117
31.2,-0.125
31.215,-0.048
31.23,-0.118
31.245,-0.088
31.26,0.027
31.275,-0.129
31.29,-0.08
31.305,-0.009
31.32,-0.06
31.335,-0.172
31.35,-0.068
31.365,-0.01
31.38,-0.039
31.395,-0.084
31.41,-0.024
31.425,-0.054
31.44,-0.004
31.455,-0.008
31.47,-0.058
31.485,-0.006
31.5,-0.15
31.515,-0.212
31.53,-0.092
31.545,-0.175
31.56,-0.08
31.575,0.007
31.59,0.015
31.605,-0.026
31.62,-0.087
31.635,0.194
31.65,0.118
31.665,0.014
31.68,0.064
31.695,-0.149
31.71,-0.057
31.725,0.114
31.74,0.064
31.755,0.06
31.77,0.022
31.785,-0.065
31.8,-0.118
31.815,-0.197
31.83,-0.1
31.845,-0.097
31.86,-0.058
31.875,-0.079
31.89,-0.084
31.905,-0.211
31.92,-0.171
31.935,0.022
31.95,0.06
31.965,-0.168
31.98,-0.147
31.995,-0.134
32.01,-0.159
32.025,-0.107
32.04,-0.073
32.055,-0.018
32.07,0.114
32.085,0.045
32.1,-0.115
32.115,-0.153
32.13,0.083
32.145,0.178
32.16,0.037
32.175,-0.025
32.19,-0.048
32.205,-0.18
32.22,-0.171
32.235,-0.249
32.25,-0.248
32.265,-0.04
32.28,0.028
32.295,0.108
32.31,-0.061
32.325,-0.153
32.34,-0.018
32.355,-0.044
32.37,-0.107
32.385,-0.019
32.4,-0.03
32.415,-0.013
32.43,-0.058
32.445,-0.123
32.46,-0.102
32.475,-0.145
32.49,-0.145
32.505,-0.218
32.52,-0.166
32.535,-0.209
32.55,-0.099
32.565,-0.048
32.58,-0.049
32.595,-0.047
32.61,-0.056
32.625,-0.103
32.64,-0.045
32.655,-0.085
32.67,-0.105
32.685,-0.04
32.7,0.012
32.715,0.063
32.73,0.007
32.745,-0.012
32.76,-0.122
32.775,-0.11
32.79,0.035
32.805,0.16
32.82,0.008
32.835,-0.004
32.85,-0.033
32.865,0.08
32.88,0.09
32.895,0.009
32.91,-0.192
32.925,-0.248
32.94,-0.131
32.955,-0.067
32.97,-0.244
32.985,-0.145
33,-0.085
33.015,-0.183
33.03,0.031
33.045,0.012
33.06,-0.071
33.075,-0.114
33.09,-0.176
33.105,-0.178
33.12,-0.142
33.135,-0.076
33.15,0.024
33.165,-0.026
33.18,-0.116
33.195,-0.07
33.21,-0.067
33.225,-0.1
33.24,-0.026
33.255,-0.016
33.27,0.042
33.285,-0.095
33.3,-0.028
33.315,0.022
33.33,0.241
33.345,0.266
33.36,0.132
33.375,-0.052
33.39,-0.001
33.405,-0.146
33.42,-0.14
33.435,-0.125
33.45,-0.028
33.465,0.004
33.48,-0.122
33.495,-0.137
33.51,-0.192
33.525,-0.039
33.54,0.016
33.555,-0.229
33.57,-0.248
33.585,0.079
33.6,0.089
33.615,0.075
33.63,0.008
33.645,-0.179
33.66,-0.012
33.675,0.077
33.69,0.049
33.705,0.057
33.72,0.215
33.735,0.183
33.75,0.022
33.765,-0.074
33.78,-0.056
33.795,-0.218
33.81,-0.074
33.825,0.2
33.84,0.145
33.855,0.094
33.87,0.041
33.885,0
33.9,0.006
33.915,0.081
33.93,0.027
33.945,0.02
33.96,0.129
33.975,0.094
33.99,0.092
34.005,0.091
34.02,0.205
34.035,0.16
34.05,0.052
34.065,0.156
34.08,0.319
34.095,0.175
34.11,0.182
34.125,0.218
34.14,0.137
34.155,0.149
34.17,0.106
34.185,0.068
34.2,0.155
34.215,0.145
34.23,0.107
34.245,0.245
34.26,0.291
34.275,0.215
34.29,0.143
34.305,0.123
34.32,0.17
34.335,0.236
34.35,0.465
34.365,0.566
34.38,0.375
34.395,0.392
34.41,0.267
34.425,0.121
34.44,0.205
34.455,0.204
34.47,0.399
34.485,0.661
34.5,0.499
34.515,0.432
34.53,0.504
34.545,0.408
34.56,0.371
34.575,0.519
34.59,0.662
34.605,0.678
34.62,0.51
34.635,0.504
34.65,0.403
34.665,0.406
34.68,0.562
34.695,0.653
34.71,0.571
34.725,0.537
34.74,0.645
34.755,0.701
34.77,0.685
34.785,0.818
34.8,0.93
34.815,1.028
34.83,1.236
34.845,1.264
34.86,1.363
34.875,1.395
34.89,1.545
34.905,1.606
34.92,1.831
34.935,2.041
34.95,2.13
34.965,2.21
34.98,2.39
34.995,2.76
35.01,3.181
35.025,3.404
35.04,3.691
35.055,3.838
35.07,4.088
35.085,4.457
35.1,4.842
35.115,5.146
35.13,5.63
35.145,6.025
35.16,6.232
35.175,6.579
35.19,6.941
35.205,7.39
35.22,7.726
35.235,8.104
35.25,8.526
35.265,8.918
35.28,9.256
35.295,9.524
35.31,9.804
35.325,10.301
35.34,10.675
35.355,10.731
35.37,10.848
35.385,10.987
35.4,11.187
35.415,11.401
35.43,11.451
35.445,11.599
35.46,11.563
35.475,11.416
35.49,11.145
35.505,10.988
35.52,11.004
35.535,10.816
35.55,10.732
35.565,10.388
35.58,9.95
35.595,9.861
35.61,9.609
35.625,9.164
35.64,9.021
35.655,8.757
35.67,8.285
35.685,7.81
35.7,7.498
35.715,7.168
35.73,6.742
35.745,6.471
35.76,6.113
35.775,5.818
35.79,5.431
35.805,4.902
35.82,4.738
35.835,4.474
35.85,4.12
35.865,3.655
35.88,3.345
35.895,2.981
35.91,2.967
35.925,2.818
35.94,2.57
35.955,2.285
35.97,2.064
35.985,2.032
36,1.881
36.015,1.552
36.03,1.545
36.045,1.489
36.06,1.379
36.075,1.213
36.09,1.009
36.105,1.021
36.12,1.063
36.135,0.725
36.15,0.642
36.165,0.748
36.18,0.737
36.195,0.744
36.21,0.514
36.225,0.462
36.24,0.38
36.255,0.459
36.27,0.618
36.285,0.727
36.3,0.627
36.315,0.477
36.33,0.326
36.345,0.277
36.36,0.352
36.375,0.453
36.39,0.543
36.405,0.382
36.42,0.335
36.435,0.27
36.45,0.341
36.465,0.374
36.48,0.19
36.495,0.219
36.51,0.411
36.525,0.545
36.54,0.481
36.555,0.312
36.57,0.318
36.585,0.287
36.6,0.402
36.615,0.372
36.63,0.285
36.645,0.335
36.66,0.288
36.675,0.273
36.69,0.334
36.705,0.51
36.72,0.595
36.735,0.533
36.75,0.487
36.765,0.46
36.78,0.521
36.795,0.575
36.81,0.498
36.825,0.565
36.84,0.613
36.855,0.457
36.87,0.555
36.885,0.795
36.9,0.717
36.915,0.688
36.93,0.631
36.945,0.686
36.96,0.909
36.975,0.794
36.99,0.612
37.005,0.644
37.02,0.627
37.035,0.68
37.05,0.782
37.065,0.836
37.08,0.923
37.095,0.755
37.11,0.652
37.125,0.723
37.14,0.731
37.155,0.831
37.17,0.868
37.185,0.639
37.2,0.702
37.215,0.663
37.23,0.687
37.245,0.613
37.26,0.566
37.275,0.622
37.29,0.672
37.305,0.733
37.32,0.561
37.335,0.652
37.35,0.553
37.365,0.425
37.38,0.226
37.395,0.165
37.41,0.221
37.425,0.274
37.44,0.316
37.455,0.268
37.47,0.172
37.485,0.251
37.5,0.202
37.515,0.092
37.53,0.132
37.545,0.093
37.56,-0.025
37.575,0.051
37.59,0.051
37.605,-0.096
37.62,-0.095
37.635,0.005
37.65,0.12
37.665,0.113
37.68,0.02
37.695,0.003
37.71,0.029
37.725,-0.014
37.74,-0.086
37.755,0.009
37.77,0.081
37.785,0.097
37.8,0.043
37.815,0.085
37.83,-0.069
37.845,-0.198
37.86,-0.038
37.875,0.007
37.89,-0.066
37.905,-0.013
37.92,-0.011
37.935,-0.23
37.95,-0.172
37.965,-0.082
37.98,-0.052
37.995,0.063
38.01,0.102
38.025,0.021
38.04,0.005
38.055,0.058
38.07,0.101
38.085,0
38.1,-0.019
38.115,-0.041
38.13,0.009
38.145,-0.019
38.16,0.026
38.175,0.144
38.19,0.057
38.205,0.023
38.22,0.09
38.235,0.088
38.25,-0.016
38.265,0.092
38.28,0.217
38.295,0.169
38.31,0.018
38.325,0.048
38.34,0.096
38.355,0.008
38.37,-0.057
38.385,0.059
38.4,0.167
38.415,-0.011
38.43,-0.056
38.445,0.064
38.46,-0.155
38.475,-0.241
38.49,-0.05
38.505,0.193
38.52,0.154
38.535,0.115
38.55,0
38.565,0.087
38.58,0.048
38.595,0.087
38.61,0.109
38.625,-0.043
38.64,-0.026
38.655,0.046
38.67,0
38.685,0.022
38.7,-0.033
38.715,-0.116
38.73,0.103
38.745,0.126
38.76,-0.026
38.775,0.029
38.79,0.022
38.805,-0.055
38.82,-0.078
38.835,-0.018
38.85,0.059
38.865,0.086
38.88,-0.114
38.895,-0.004
38.91,0.115
38.925,-0.002
38.94,0.06
38.955,0.042
38.97,0.055
38.985,0.006
39,-0.013
39.015,-0.065
39.03,-0.115
39.045,-0.06
39.06,0.027
39.075,-0.014
39.09,-0.015
39.105,-0.056
39.12,-0.082
39.135,-0.045
39.15,-0.069
39.165,-0.036
39.18,0.093
39.195,0.08
39.21,-0.028
39.225,0.006
39.24,0.243
39.255,0.268
39.27,-0.038
39.285,-0.097
39.3,-0.121
39.315,0.102
39.33,0.099
39.345,0.012
39.36,0.005
39.375,-0.077
39.39,0.067
39.405,0.009
39.42,-0.058
39.435,-0.085
39.45,-0.157
39.465,-0.053
39.48,-0.004
39.495,-0.012
39.51,-0.138
39.525,-0.197
39.54,-0.091
39.555,-0.073
39.57,-0.092
39.585,-0.143
39.6,-0.106
39.615,-0.033
39.63,-0.058
39.645,-0.005
39.66,-0.048
39.675,0.041
39.69,0.083
39.705,0.095
39.72,0.157
39.735,0.01
39.75,-0.1
39.765,-0.095
39.78,-0.092
39.795,-0.048
39.81,-0.051
39.825,-0.123
39.84,-0.03
39.855,-0.019
39.87,-0.16
39.885,-0.104
39.9,-0.037
39.915,-0.052
39.93,-0.16
39.945,-0.132
39.96,-0.103
39.975,-0.001
39.99,0.079
40.005,0.087
40.02,0.011
40.035,0.066
40.05,-0.117
40.065,-0.23
40.08,-0.133
40.095,-0.239
40.11,-0.15
40.125,0.132
40.14,0.17
40.155,0.139
40.17,0.08
40.185,0.009
40.2,-0.004
40.215,-0.082
40.23,0.049
40.245,0.091
40.26,0.08
40.275,0.043
40.29,0.019
40.305,0.011
40.32,0.057
40.335,0.028
40.35,-0.048
40.365,0.006
40.38,-0.088
40.395,-0.159
40.41,-0.033
40.425,0.038
40.44,-0.001
40.455,0.119
40.47,0.171
40.485,0.073
40.5,-0.025
40.515,-0.209
40.53,-0.126
40.545,-0.053
40.56,-0.076
40.575,-0.088
40.59,0.022
40.605,-0.079
40.62,-0.132
40.635,-0.081
40.65,-0.121
40.665,-0.064
40.68,-0.227
40.695,-0.081
40.71,0.122
40.725,0.124
40.74,0.049
40.755,-0.09
40.77,-0.142
40.785,-0.034
40.8,-0.123
40.815,-0.238
40.83,-0.185
40.845,-0.154
40.86,-0.147
40.875,-0.114
40.89,-0.096
40.905,-0.018
40.92,0.025
40.935,-0.043
40.95,0.023
40.965,0.076
40.98,-0.017
40.995,-0.023
41.01,0.071
41.025,0.025
41.04,0.045
41.055,-0.021
41.07,-0.142
41.085,0.015
41.1,0.134
41.115,0.003
41.13,-0.007
41.145,0.046
41.16,-0.048
41.175,0.016
41.19,0.126
41.205,-0.083
41.22,-0.091
41.235,-0.007
41.25,0.057
41.265,0.009
41.28,-0.125
41.295,-0.221
41.31,-0.091
41.325,-0.131
41.34,-0.197
41.355,-0.097
41.37,-0.06
41.385,-0.157
41.4,-0.032
41.415,0.015
41.43,-0.108
41.445,-0.104
41.46,0.019
41.475,0.101
41.49,0.088
41.505,0.05
41.52,-0.087
41.535,-0.195
41.55,-0.019
41.565,-0.011
41.58,-0.043
41.595,0.155
41.61,-0.121
41.625,-0.172
41.64,0.104
41.655,-0.003
41.67,-0.191
41.685,-0.109
41.7,-0.003
41.715,0.151
41.73,0.112
41.745,-0.138
41.76,-0.098
41.775,0.086
41.79,-0.053
41.805,-0.17
41.82,-0.092
41.835,-0.118
41.85,-0.058
41.865,-0.117
41.88,-0.237
41.895,-0.049
41.91,0.089
41.925,0.072
41.94,0.079
41.955,0.017
41.97,-0.117
41.985,-0.071
42,0.079
42.015,0.023
42.03,0.02
42.045,-0.096
42.06,-0.05
42.075,0.125
42.09,0.021
42.105,-0.053
42.12,-0.025
42.135,0.022
42.15,0.036
42.165,0.088
42.18,0.118
42.195,0.169
42.21,0.216
42.225,-0.049
42.24,0
42.255,0.143
42.27,0.273
42.285,0.155
42.3,-0.02
42.315,0.06
42.33,0.073
42.345,0.115
42.36,0.06
42.375,0.108
42.39,0.186
42.405,0.127
42.42,0.158
42.435,0.084
42.45,0.117
42.465,0.201
42.48,0.143
42.495,0.109
42.51,0.268
42.525,0.382
42.54,0.35
42.555,0.388
42.57,0.471
42.585,0.386
42.6,0.496
42.615,0.647
42.63,0.592
42.645,0.702
42.66,0.665
42.675,0.637
42.69,0.65
42.705,0.75
42.72,0.865
42.735,1.05
42.75,0.979
42.765,0.972
42.78,1.042
42.795,1.122
42.81,1.341
42.825,1.301
42.84,1.233
42.855,1.522
42.87,1.602
42.885,1.631
42.9,1.659
42.915,1.764
42.93,1.843
42.945,1.812
42.96,2.015
42.975,2.064
42.99,2.18
43.005,2.305
43.02,2.263
43.035,2.408
43.05,2.376
43.065,2.39
43.08,2.404
43.095,2.305
43.11,2.379
43.125,2.451
43.14,2.539
43.155,2.338
43.17,2.239
43.185,2.124
43.2,1.895
43.215,1.953
43.23,1.947
43.245,1.951
43.26,1.92
43.275,1.96
43.29,1.79
43.305,1.623
43.32,1.728
43.335,1.711
43.35,1.448
43.365,1.316
43.38,1.18
43.395,1.264
43.41,1.233
43.425,0.933
43.44,0.997
43.455,0.905
43.47,0.76
43.485,0.725
43.5,0.769
43.515,0.74
43.53,0.622
43.545,0.476
43.56,0.447
43.575,0.483
43.59,0.495
43.605,0.508
43.62,0.366
43.635,0.213
43.65,0.385
43.665,0.342
43.68,0.183
43.695,0.258
43.71,0.215
43.725,0.126
43.74,0.058
43.755,0.139
43.77,0.086
43.785,0.016
43.8,-0.028
43.815,0.01
43.83,0.071
43.845,0.134
43.86,0.081
43.875,0.114
43.89,0.131
43.905,0.191
43.92,0.071
43.935,0.117
43.95,0.055
43.965,-0.038
43.98,0.023
43.995,0.013
44.01,-0.083
44.025,-0.063
44.04,0.01
44.055,0.104
44.07,0.087
44.085,0.083
44.1,0.019
44.115,-0.032
44.13,0.111
44.145,0.121
44.16,0.049
44.175,-0.087
44.19,-0.21
44.205,-0.06
44.22,0
44.235,-0.108
44.25,0.077
44.265,0.088
44.28,0.011
44.295,0.124
44.31,0.066
44.325,-0.059
44.34,-0.162
44.355,-0.126
44.37,0.014
44.385,0.066
44.4,0.061
44.415,-0.02
44.43,-0.034
44.445,0.04
44.46,0.007
44.475,-0.069
44.49,-0.05
44.505,-0.083
44.52,-0.127
44.535,-0.03
44.55,-0.105
44.565,-0.164
44.58,-0.045
44.595,0.003
44.61,0.055
44.625,-0.026
44.64,-0.012
44.655,0.063
44.67,0.083
44.685,-0.061
44.7,0.017
44.715,-0.021
44.73,-0.151
44.745,-0.116
44.76,-0.111
44.775,-0.14
44.79,-0.233
44.805,-0.162
44.82,-0.037
44.835,0.049
44.85,-0.049
44.865,-0.22
44.88,-0.153
44.895,-0.053
44.91,0.017
44.925,0.083
44.94,-0.021
44.955,0.041
44.97,0.028
44.985,0.002
45,-0.053
45.015,-0.062
45.03,-0.018
45.045,0.058
45.06,-0.041
45.075,0.105
45.09,0.049
45.105,-0.019
45.12,-0.033
45.135,-0.209
45.15,-0.159
45.165,-0.126
45.18,-0.108
45.195,-0.025
45.21,-0.033
45.225,-0.112
45.24,-0.026
45.255,-0.128
45.27,-0.053
45.285,0.055
45.3,0.024
45.315,0.02
45.33,-0.098
45.345,-0.057
45.36,0.028
45.375,-0.082
45.39,-0.076
45.405,-0.026
45.42,-0.061
45.435,-0.005
45.45,-0.115
45.465,-0.136
45.48,-0.116
45.495,0.014
45.51,0.04
45.525,-0.016
45.54,-0.169
45.555,-0.177
45.57,-0.119
45.585,-0.211
45.6,-0.199
45.615,-0.132
45.63,-0.103
45.645,-0.075
45.66,-0.116
45.675,-0.232
45.69,0.036
45.705,0.018
45.72,-0.063
45.735,-0.082
45.75,-0.087
45.765,-0.064
45.78,-0.003
45.795,-0.02
45.81,-0.036
45.825,0.035
45.84,-0.022
45.855,-0.091
45.87,-0.005
45.885,-0.129
45.9,-0.129
45.915,-0.012
45.93,0.028
45.945,0.018
45.96,0.04
45.975,0.041
45.99,-0.058
46.005,0.021
46.02,-0.033
46.035,-0.131
46.05,-0.195
46.065,-0.144
46.08,-0.153
46.095,-0.056
46.11,-0.102
46.125,-0.067
46.14,0.003
46.155,-0.22
46.17,-0.232
46.185,-0.076
46.2,-0.023
46.215,-0.12
46.23,-0.171
46.245,-0.042
46.26,-0.139
46.275,-0.197
46.29,-0.079
46.305,-0.016
46.32,-0.036
46.335,-0.032
46.35,-0.019
46.365,-0.132
46.38,-0.161
46.395,-0.07
46.41,-0.023
46.425,-0.081
46.44,-0.109
46.455,-0.112
46.47,-0.053
46.485,0.043
46.5,-0.128
46.515,-0.223
46.53,-0.114
46.545,-0.005
46.56,0.039
46.575,0.007
46.59,0.012
46.605,-0.05
46.62,-0.087
46.635,0.016
46.65,-0.031
46.665,-0.159
46.68,-0.162
46.695,-0.105
46.71,0.032
46.725,0.026
46.74,0.007
46.755,-0.026
46.77,0.016
46.785,0.047
46.8,-0.042
46.815,-0.148
46.83,-0.085
46.845,-0.042
46.86,0.024
46.875,-0.094
46.89,-0.162
46.905,-0.216
46.92,-0.03
46.935,0.057
46.95,0.06
46.965,-0.002
46.98,-0.172
46.995,-0.185
47.01,-0.016
47.025,0.036
47.04,0.061
47.055,0.052
47.07,-0.003
47.085,0.027
47.1,0.02
47.115,-0.035
47.13,0.042
47.145,-0.109
47.16,-0.032
47.175,0.069
47.19,0.08
47.205,0.15
47.22,0.059
47.235,-0.027
47.25,-0.094
47.265,-0.169
47.28,-0.133
47.295,-0.109
47.31,-0.124
47.325,0.023
47.34,-0.053
47.355,-0.088
47.37,-0.071
47.385,-0.028
47.4,-0.185
47.415,-0.045
47.43,0.073
47.445,0.03
47.46,0.013
47.475,-0.036
47.49,-0.062
47.505,-0.088
47.52,-0.182
47.535,-0.165
47.55,-0.049
47.565,0.039
47.58,0.034
47.595,-0.061
47.61,-0.022
47.625,-0.088
47.64,-0.16
47.655,-0.201
47.67,-0.204
47.685,-0.151
47.7,-0.104
47.715,-0.057
47.73,-0.111
47.745,-0.09
47.76,0.026
47.775,-0.027
47.79,-0.013
47.805,-0.034
47.82,-0.054
47.835,-0.067
47.85,0.08
47.865,0.123
47.88,0.092
47.895,0.032
47.91,0.092
47.925,-0.017
47.94,-0.037
47.955,-0.048
47.97,-0.23
47.985,-0.166
48,-0.148
48.015,-0.064
48.03,-0.027
48.045,-0.064
48.06,-0.006
48.075,-0.12
48.09,-0.071
48.105,0.056
48.12,0.075
48.135,0.128
48.15,0.112
48.165,-0.153
48.18,-0.203
48.195,-0.164
48.21,-0.148
48.225,-0.145
48.24,0.027
48.255,0.014
48.27,-0.056
48.285,0.118
48.3,0.053
48.315,-0.063
48.33,-0.114
48.345,-0.176
48.36,-0.04
48.375,-0.065
48.39,-0.046
48.405,0.002
48.42,-0.083
48.435,-0.11
48.45,-0.009
48.465,-0.022
48.48,-0.088
48.495,-0.185
48.51,-0.123
48.525,0.007
48.54,0.053
48.555,-0.103
48.57,-0.066
48.585,-0.097
48.6,-0.131
48.615,-0.087
48.63,-0.159
48.645,-0.131
48.66,-0.068
48.675,-0.005
48.69,0.042
48.705,-0.029
48.72,-0.085
48.735,-0.014
48.75,0.126
48.765,0.015
48.78,-0.099
48.795,-0.105
48.81,-0.184
48.825,-0.049
48.84,-0.158
48.855,-0.199
48.87,-0.182
48.885,-0.123
48.9,0.073
48.915,0.177
48.93,0.009
48.945,-0.048
48.96,-0.012
48.975,-0.181
48.99,-0.106
49.005,-0.069
49.02,-0.064
49.035,-0.228
49.05,-0.223
49.065,-0.096
49.08,-0.155
49.095,-0.225
49.11,-0.154
49.125,-0.102
49.14,-0.027
49.155,-0.052
49.17,-0.142
49.185,-0.156
49.2,-0.016
49.215,0.149
49.23,0.108
49.245,0.081
49.26,0.038
49.275,-0.119
49.29,-0.135
49.305,-0.061
49.32,-0.046
49.335,-0.119
49.35,-0.108
49.365,-0.045
49.38,-0.125
49.395,-0.11
49.41,-0.131
49.425,-0.115
49.44,-0.006
49.455,-0.111
49.47,-0.21
49.485,-0.129
49.5,-0.077
49.515,-0.097
49.53,-0.047
49.545,-0.111
49.56,-0.022
49.575,-0.064
49.59,0.031
49.605,0.032
49.62,-0.101
49.635,-0.209
49.65,-0.221
49.665,-0.14
49.68,0.031
49.695,0.039
49.71,-0.037
49.725,-0.124
49.74,-0.123
49.755,-0.129
49.77,-0.04
49.785,0.025
49.8,-0.105
49.815,-0.132
49.83,-0.189
49.845,-0.113
49.86,0.048
49.875,0.011
49.89,-0.13
49.905,-0.086
49.92,0.011
49.935,0.008
49.95,0.004
49.965,0.054
49.98,0.115
49.995,-0.096
50.01,-0.195
50.025,-0.073
50.04,0.009
50.055,0.016
50.07,-0.072
50.085,-0.227
50.1,-0.162
50.115,0.039
50.13,0.125
50.145,0.08
50.16,-0.036
50.175,0.01
50.19,-0.073
50.205,-0.076
50.22,0.055
50.235,0.081
50.25,-0.002
50.265,-0.192
50.28,-0.119
50.295,-0.077
50.31,-0.029
50.325,0.001
50.34,0.039
50.355,0.137
50.37,0.091
50.385,0.095
50.4,-0.087
50.415,-0.134
50.43,-0.108
50.445,-0.023
50.46,0.099
50.475,0.017
50.49,-0.071
50.505,-0.105
50.52,-0.039
50.535,-0.115
50.55,-0.091
50.565,0.012
50.58,-0.001
50.595,0.069
50.61,0.051
50.625,0.015
50.64,-0.046
50.655,-0.036
50.67,-0.012
50.685,-0.153
50.7,-0.12
50.715,0.083
50.73,0.077
50.745,0.063
50.76,0.045
50.775,0.026
50.79,0.038
50.805,0.044
50.82,-0.009
50.835,-0.082
50.85,0.005
50.865,0.168
50.88,0.074
50.895,-0.017
50.91,0.013
50.925,0.009
50.94,0.036
50.955,-0.211
50.97,-0.104
50.985,-0.008
51,-0.015
51.015,0.054
51.03,0.025
51.045,-0.073
51.06,-0.206
51.075,-0.119
51.09,-0.025
51.105,0.066
51.12,0.031
51.135,-0.092
51.15,0.084
51.165,0.09
51.18,-0.075
51.195,-0.101
51.21,-0.051
51.225,0.054
51.24,-0.137
51.255,-0.134
51.27,0.024
51.285,-0.015
51.3,0.02
51.315,-0.036
51.33,-0.049
51.345,-0.057
51.36,-0.045
51.375,0.224
51.39,0.167
51.405,0.062
51.42,-0.034
51.435,-0.002
51.45,-0.167
51.465,-0.226
51.48,-0.065
51.495,0.015
51.51,-0.008
51.525,0.112
51.54,0.118
51.555,0.128
51.57,0.043
51.585,0.073
51.6,0.029
51.615,-0.225
51.63,-0.22
51.645,-0.062
51.66,0.019
51.675,-0.063
51.69,-0.003
51.705,0.023
51.72,-0.039
51.735,-0.081
51.75,-0.094
51.765,-0.061
51.78,0.019
51.795,0.044
51.81,-0.083
51.825,-0.092
51.84,-0.105
51.855,-0.036
51.87,0.121
51.885,0.016
51.9,-0.046
51.915,-0.124
51.93,0.002
51.945,0.052
51.96,0.051
51.975,0.045
51.99,0.055
52.005,0.059
52.02,-0.035
52.035,-0.029
52.05,0.127
52.065,0.252
52.08,0.16
52.095,-0.099
52.11,-0.16
52.125,-0.013
52.14,-0.1
52.155,-0.116
52.17,-0.11
52.185,-0.133
52.2,0.008
52.215,0.032
52.23,-0.045
52.245,-0.13
52.26,-0.081
52.275,0.003
52.29,0.084
52.305,0.035
52.32,-0.119
52.335,-0.087
52.35,0.017
52.365,0.075
52.38,0.083
52.395,0.041
52.41,-0.079
52.425,-0.1
52.44,0.032
52.455,-0.099
52.47,-0.025
52.485,-0.024
52.5,-0.029
52.515,-0.045
52.53,-0.128
52.545,0.094
52.56,0.019
52.575,-0.085
52.59,-0.045
52.605,-0.203
52.62,-0.225
52.635,0.041
52.65,0.061
52.665,0.021
52.68,-0.052
52.695,-0.01
52.71,0.029
52.725,-0.026
52.74,0.068
52.755,0.009
52.77,0.055
52.785,0.091
52.8,0.037
52.815,-0.043
52.83,-0.198
52.845,-0.181
52.86,-0.068
52.875,-0.063
52.89,0.097
52.905,0.131
52.92,0.101
52.935,0.048
52.95,0.141
52.965,0.301
52.98,0.258
52.995,0.225
53.01,0.103
53.025,0.044
53.04,0.124
53.055,0.296
53.07,0.397
53.085,0.377
53.1,0.288
53.115,0.363
53.13,0.416
53.145,0.393
53.16,0.469
53.175,0.45
53.19,0.607
53.205,0.582
53.22,0.594
53.235,0.559
53.25,0.602
53.265,0.674
53.28,0.67
53.295,0.676
53.31,0.672
53.325,0.83
53.34,1.038
53.355,1.047
53.37,0.845
53.385,0.705
53.4,0.777
53.415,0.692
53.43,0.817
53.445,0.925
53.46,0.858
53.475,0.831
53.49,0.872
53.505,0.841
53.52,0.918
53.535,0.855
53.55,0.699
53.565,0.633
53.58,0.531
53.595,0.515
53.61,0.602
53.625,0.683
53.64,0.75
53.655,0.667
53.67,0.536
53.685,0.639
53.7,0.735
53.715,0.627
53.73,0.496
53.745,0.515
53.76,0.519
53.775,0.381
53.79,0.286
53.805,0.385
53.82,0.215
53.835,0.311
53.85,0.372
53.865,0.416
53.88,0.303
53.895,0.099
53.91,0.014
53.925,0.095
53.94,0.235
53.955,0.137
53.97,0.061
53.985,0.155
54,0.057
54.015,-0.057
54.03,0.019
54.045,-0.063
54.06,-0.055
54.075,0.062
54.09,0.003
54.105,-0.051
54.12,-0.055
54.135,-0.038
54.15,-0.028
54.165,-0.062
54.18,-0.04
54.195,-0.15
54.21,-0.052
54.225,-0.037
54.24,0.013
54.255,-0.095
54.27,-0.195
54.285,-0.175
54.3,-0.205
54.315,-0.168
54.33,-0.126
54.345,0.086
54.36,0.072
54.375,-0.077
54.39,-0.111
54.405,-0.075
54.42,0.007
54.435,-0.089
54.45,-0.184
54.465,-0.164
54.48,-0.078
54.495,-0.066
54.51,-0.055
54.525,-0.068
54.54,-0.204
54.555,-0.165
54.57,-0.073
54.585,-0.002
54.6,-0.07
54.615,-0.03
54.63,0.064
54.645,0.07
54.66,-0.222
54.675,-0.189
54.69,-0.06
54.705,-0.137
54.72,-0.156
54.735,-0.042
54.75,-0.061
54.765,-0.066
54.78,-0.028
54.795,-0.034
54.81,-0.077
54.825,-0.062
54.84,0.032
54.855,-0.038
54.87,-0.138
54.885,-0.074
54.9,-0.136
54.915,-0.096
54.93,0.131
54.945,0.143
54.96,0.028
54.975,0.021
54.99,0.13
55.005,0.107
55.02,-0.071
55.035,-0.187
55.05,-0.104
55.065,-0.066
55.08,-0.097
55.095,-0.011
55.11,-0.083
55.125,-0.114
55.14,-0.203
55.155,-0.175
55.17,-0.071
55.185,-0.189
55.2,-0.222
55.215,0.045
55.23,0.122
55.245,0.092
55.26,-0.013
55.275,-0.094
55.29,-0.129
55.305,-0.061
55.32,-0.038
55.335,0.066
55.35,0.075
55.365,0.011
55.38,0.028
55.395,-0.017
55.41,-0.113
55.425,-0.161
55.44,-0.058
55.455,-0.138
55.47,-0.083
55.485,-0.016
55.5,0.017
55.515,-0.018
55.53,0.033
55.545,0.045
55.56,-0.035
55.575,0.032
55.59,0.089
55.605,-0.024
55.62,-0.034
55.635,-0.054
55.65,0.061
55.665,0.034
55.68,0.002
55.695,-0.057
55.71,-0.106
55.725,-0.027
55.74,0.061
55.755,0.005
55.77,-0.037
55.785,0.014
55.8,-0.092
55.815,0.054
55.83,0.156
55.845,0.041
55.86,-0.084
55.875,-0.066
55.89,0.083
55.905,0.191
55.92,0.106
55.935,-0.031
55.95,-0.079
55.965,0.031
55.98,-0.026
55.995,-0.112
56.01,-0.189
56.025,-0.081
56.04,0.083
56.055,0.088
56.07,0.077
56.085,0.036
56.1,0.045
56.115,0.074
56.13,0.067
56.145,0.213
56.16,0.095
56.175,0.054
56.19,-0.092
56.205,0.053
56.22,0.222
56.235,0.141
56.25,0.076
56.265,0.157
56.28,0.113
56.295,0.119
56.31,0.221
56.325,0.231
56.34,0.193
56.355,0.187
56.37,0.323
56.385,0.309
56.4,0.306
56.415,0.302
56.43,0.336
56.445,0.529
56.46,0.575
56.475,0.609
56.49,0.71
56.505,0.792
56.52,0.731
56.535,0.776
56.55,0.916
56.565,0.974
56.58,1.083
56.595,1.1
56.61,1.1
56.625,1.137
56.64,1.373
56.655,1.5
56.67,1.485
56.685,1.394
56.7,1.611
56.715,1.686
56.73,1.764
56.745,1.947
56.76,2.053
56.775,2.114
56.79,2.214
56.805,2.131
56.82,2.299
56.835,2.524
56.85,2.505
56.865,2.552
56.88,2.574
56.895,2.664
56.91,2.698
56.925,2.781
56.94,2.86
56.955,2.89
56.97,2.89
56.985,2.847
57,2.941
57.015,2.931
57.03,2.838
57.045,2.78
57.06,2.797
57.075,2.794
57.09,2.74
57.105,2.703
57.12,2.644
57.135,2.588
57.15,2.628
57.165,2.476
57.18,2.312
57.195,2.299
57.21,2.274
57.225,2.273
57.24,2.034
57.255,1.902
57.27,1.832
57.285,1.846
57.3,1.752
57.315,1.712
57.33,1.581
57.345,1.438
57.36,1.475
57.375,1.371
57.39,1.359
57.405,1.251
57.42,0.875
57.435,0.86
57.45,1.019
57.465,0.892
57.48,0.814
57.495,0.765
57.51,0.625
57.525,0.487
57.54,0.515
57.555,0.461
57.57,0.491
57.585,0.453
57.6,0.426
57.615,0.367
57.63,0.273
57.645,0.201
57.66,0.268
57.675,0.328
57.69,0.333
57.705,0.156
57.72,0.097
57.735,0.067
57.75,0.124
57.765,0.071
57.78,-0.042
57.795,0.019
57.81,0.104
57.825,0.004
57.84,-0.064
57.855,-0.146
57.87,-0.161
57.885,-0.014
57.9,0.12
57.915,-0.035
57.93,-0.04
57.945,0.133
57.96,0.05
57.975,-0.084
57.99,-0.047
58.005,-0.133
58.02,-0.205
58.035,-0.186
58.05,-0.092
58.065,0.048
58.08,0.002
58.095,0.073
58.11,0.219
58.125,0.039
58.14,-0.093
58.155,-0.092
58.17,0.006
58.185,-0.012
58.2,-0.054
58.215,-0.081
58.23,-0.111
58.245,0.014
58.26,0.073
58.275,0.075
58.29,0.068
58.305,-0.053
58.32,-0.142
58.335,0
58.35,0.1
58.365,0
58.38,0.049
58.395,-0.022
58.41,-0.07
58.425,-0.031
58.44,0.043
58.455,-0.123
58.47,-0.104
58.485,0.04
58.5,0.085
58.515,-0.002
58.53,-0.219
58.545,-0.213
58.56,-0.184
58.575,-0.034
58.59,0.002
58.605,0.098
58.62,0.034
58.635,-0.035
58.65,0.033
58.665,-0.061
58.68,-0.077
58.695,-0.034
58.71,-0.008
58.725,-0.12
58.74,-0.12
58.755,-0.079
58.77,-0.027
58.785,-0.062
58.8,-0.056
58.815,-0.079
58.83,-0.188
58.845,-0.219
58.86,-0.206
58.875,-0.127
58.89,-0.037
58.905,-0.107
58.92,-0.092
58.935,0.044
58.95,0.001
58.965,0.054
58.98,0.078
58.995,-0.094
59.01,-0.047
59.025,0.006
59.04,-0.119
59.055,-0.116
59.07,-0.132
59.085,-0.132
59.1,-0.185
59.115,-0.178
59.13,-0.146
59.145,-0.071
59.16,-0.063
59.175,-0.206
59.19,-0.068
59.205,-0.065
59.22,-0.059
59.235,-0.08
59.25,-0.177
59.265,-0.152
59.28,-0.109
59.295,-0.04
59.31,-0.119
59.325,-0.208
59.34,-0.034
59.355,-0.047
59.37,-0.044
59.385,-0.021
59.4,0.07
59.415,-0.019
59.43,-0.078
59.445,-0.111
59.46,0.013
59.475,0.024
59.49,-0.108
59.505,-0.137
59.52,-0.131
59.535,-0.137
59.55,-0.188
59.565,-0.113
59.58,-0.039
59.595,-0.133
59.61,-0.167
59.625,-0.163
59.64,-0.09
59.655,0.062
59.67,0.12
59.685,-0.132
59.7,-0.127
59.715,0
59.73,0.002
59.745,-0.046
59.76,-0.127
59.775,-0.218
59.79,-0.146
59.805,-0.041
59.82,-0.036
59.835,-0.046
59.85,0.139
59.865,0.128
59.88,-0.084
59.895,-0.164
59.91,-0.097
59.925,-0.124
59.94,-0.06
59.955,-0.039
59.97,-0.05
59.985,-0.151
60,-0.118
60.015,-0.147
60.03,-0.112
60.045,-0.098
60.06,-0.126
60.075,-0.103
60.09,-0.083
60.105,-0.166
60.12,-0.153
60.135,-0.033
60.15,0.114
60.165,0.031
60.18,-0.044
60.195,-0.018
60.21,-0.029
60.225,-0.017
60.24,-0.029
60.255,-0.049
60.27,-0.046
60.285,0.01
60.3,-0.146
60.315,-0.151
60.33,-0.012
60.345,-0.053
60.36,0.014
60.375,0.071
60.39,0.08
60.405,0.108
60.42,-0.017
60.435,-0.207
60.45,0.037
60.465,0.054
60.48,-0.041
60.495,0.041
60.51,-0.07
60.525,-0.098
60.54,-0.108
60.555,-0.048
60.57,0.133
60.585,0.052
60.6,0.049
60.615,-0.097
60.63,-0.103
60.645,-0.124
60.66,-0.08
60.675,0.072
60.69,0.047
60.705,-0.087
60.72,-0.217
60.735,-0.079
60.75,0.02
60.765,0.03
60.78,-0.08
60.795,-0.066
60.81,-0.179
60.825,-0.128
60.84,-0.069
60.855,-0.017
60.87,-0.072
60.885,-0.081
60.9,0.014
60.915,-0.056
60.93,0.048
60.945,0.229
60.96,0.203
60.975,0.017
60.99,-0.182
61.005,-0.038
61.02,-0.032
61.035,-0.043
61.05,-0.023
61.065,0.061
61.08,-0.028
61.095,-0.097
61.11,-0.07
61.125,0.037
61.14,0.035
61.155,0.087
61.17,0.044
61.185,-0.042
61.2,-0.092
61.215,-0.071
61.23,0.034
61.245,-0.046
61.26,-0.135
61.275,-0.061
61.29,0.044
61.305,0.164
61.32,0.125
61.335,0.074
61.35,0.071
61.365,0.058
61.38,0.174
61.395,0.061
61.41,-0.085
61.425,-0.024
61.44,-0.04
61.455,-0.024
61.47,0.106
61.485,0.04
61.5,0.007
61.515,-0.079
61.53,-0.078
61.545,0.015
61.56,0.012
61.575,0.012
61.59,0.061
61.605,-0.039
61.62,-0.014
61.635,0.03
61.65,0.024
61.665,0.097
61.68,0.041
61.695,0.072
61.71,0.067
61.725,-0.043
61.74,-0.081
61.755,0.085
61.77,0.167
61.785,0.108
61.8,0.099
61.815,0.229
61.83,0.131
61.845,0.1
61.86,0.143
61.875,0.267
61.89,0.315
61.905,0.268
61.92,0.369
61.935,0.487
61.95,0.53
61.965,0.451
61.98,0.419
61.995,0.461
62.01,0.66
62.025,0.701
62.04,0.741
62.055,0.819
62.07,0.75
62.085,0.668
62.1,0.889
62.115,1.009
62.13,1.114
62.145,1.203
62.16,1.269
62.175,1.449
62.19,1.613
62.205,1.628
62.22,1.546
62.235,1.625
62.25,1.931
62.265,2.025
62.28,2.162
62.295,2.225
62.31,2.316
62.325,2.395
62.34,2.508
62.355,2.635
62.37,2.923
62.385,2.938
62.4,3.002
62.415,3.216
62.43,3.318
62.445,3.146
62.46,3.283
62.475,3.619
62.49,3.699
62.505,3.711
62.52,3.672
62.535,3.621
62.55,3.785
62.565,3.81
62.58,3.81
62.595,3.814
62.61,3.837
62.625,3.788
62.64,3.891
62.655,3.882
62.67,3.689
62.685,3.629
62.7,3.729
62.715,3.722
62.73,3.556
62.745,3.51
62.76,3.381
62.775,3.24
62.79,3.195
62.805,3.112
62.82,3.111
62.835,2.933
62.85,2.734
62.865,2.626
62.88,2.492
62.895,2.509
62.91,2.46
62.925,2.313
62.94,2.025
62.955,1.91
62.97,1.966
62.985,1.819
63,1.651
63.015,1.515
63.03,1.384
63.045,1.296
63.06,1.232
63.075,1.077
63.09,1.028
63.105,0.888
63.12,0.874
63.135,0.913
63.15,0.815
63.165,0.845
63.18,0.782
63.195,0.688
63.21,0.611
63.225,0.576
63.24,0.436
63.255,0.396
63.27,0.374
63.285,0.303
63.3,0.266
63.315,0.216
63.33,0.319
63.345,0.24
63.36,0.24
63.375,0.171
63.39,0.162
63.405,0.177
63.42,0.224
63.435,0.129
63.45,0.19
63.465,0.17
63.48,0.285
63.495,0.321
63.51,0.078
63.525,-0.039
63.54,0.108
63.555,0.096
63.57,-0.029
63.585,-0.028
63.6,0.045
63.615,0.135
63.63,0.097
63.645,-0.014
63.66,0.032
63.675,0.075
63.69,0.011
63.705,-0.024
63.72,-0.004
63.735,0.015
63.75,0.03
63.765,-0.032
63.78,0.153
63.795,0.055
63.81,-0.12
63.825,-0.124
63.84,-0.038
63.855,-0.019
63.87,-0.093
63.885,-0.031
63.9,0.087
63.915,0.036
63.93,0.058
63.945,-0.061
63.96,-0.077
63.975,-0.104
63.99,-0.046
64.005,0.005
64.02,0.043
64.035,0.068
64.05,-0.11
64.065,-0.088
64.08,0.006
64.095,0.022
64.11,-0.075
64.125,-0.035
64.14,-0.071
64.155,0.004
64.17,0.028
64.185,-0.125
64.2,-0.126
64.215,-0.047
64.23,-0.093
64.245,-0.044
64.26,-0.139
64.275,-0.057
64.29,0.032
64.305,-0.053
64.32,-0.048
64.335,-0.114
64.35,-0.102
64.365,-0.045
64.38,-0.042
64.395,-0.031
64.41,-0.092
64.425,-0.043
64.44,-0.116
64.455,-0.05
64.47,0.056
64.485,0.007
64.5,-0.18
64.515,-0.214
64.53,-0.024
64.545,0.02
64.56,-0.04
64.575,-0.048
64.59,-0.042
64.605,-0.078
64.62,0.093
64.635,0.064
64.65,-0.049
64.665,0.063
64.68,0.077
64.695,-0.09
64.71,-0.145
64.725,-0.068
64.74,-0.07
64.755,0.006
64.77,0.044
64.785,-0.004
64.8,-0.02
64.815,-0.096
64.83,-0.147
64.845,-0.082
64.86,-0.096
64.875,-0.045
64.89,-0.077
64.905,-0.084
64.92,-0.056
64.935,-0.09
64.95,-0.07
64.965,-0.054
64.98,0.001
64.995,-0.155
65.01,-0.094
65.025,-0.002
65.04,-0.094
65.055,-0.158
65.07,-0.107
65.085,-0.06
65.1,0.048
65.115,-0.072
65.13,-0.128
65.145,-0.104
65.16,-0.051
65.175,-0.072
65.19,-0.052
65.205,-0.125
65.22,-0.086
65.235,-0.107
65.25,-0.12
65.265,-0.095
65.28,-0.111
65.295,-0.096
65.31,0.015
65.325,0.083
65.34,-0.058
65.355,-0.156
65.37,-0.148
65.385,-0.024
65.4,-0.063
65.415,-0.007
65.43,-0.012
65.445,-0.053
65.46,-0.103
65.475,-0.118
65.49,-0.091
65.505,-0.058
65.52,-0.078
65.535,-0.073
65.55,-0.017
65.565,-0.047
65.58,-0.104
65.595,-0.021
65.61,-0.071
65.625,-0.067
65.64,-0.018
65.655,-0.135
65.67,-0.123
65.685,-0.059
65.7,-0.153
65.715,-0.087
65.73,-0.051
65.745,0.006
65.76,0.07
65.775,0.034
65.79,-0.076
65.805,-0.025
65.82,0.055
65.835,-0.082
65.85,-0.213
65.865,-0.156
65.88,-0.02
65.895,-0.086
65.91,-0.025
65.925,0.078
65.94,0.054
65.955,-0.036
65.97,-0.088
65.985,-0.058
66,0.069
66.015,-0.012
66.03,-0.082
66.045,-0.061
66.06,-0.052
66.075,0.031
66.09,-0.018
66.105,-0.096
66.12,-0.04
66.135,0.017
66.15,0.076
66.165,0.079
66.18,-0.036
66.195,-0.026
66.21,-0.015
66.225,-0.046
66.24,0.101
66.255,0.099
66.27,-0.046
66.285,-0.114
66.3,-0.091
66.315,-0.145
66.33,-0.12
66.345,0.012
66.36,-0.065
66.375,0.009
66.39,-0.036
66.405,-0.034
66.42,-0.086
66.435,0.011
66.45,-0.009
66.465,-0.102
66.48,-0.117
66.495,-0.022
66.51,0.036
66.525,0
66.54,-0.164
66.555,-0.058
66.57,0.096
66.585,0.018
66.6,-0.036
66.615,-0.001
66.63,-0.065
66.645,-0.098
66.66,-0.001
66.675,-0.016
66.69,0.057
66.705,0.064
66.72,-0.008
66.735,-0.103
66.75,-0.082
66.765,-0.002
66.78,-0.098
66.795,-0.102
66.81,-0.015
66.825,-0.155
66.84,-0.211
66.855,-0.135
66.87,-0.042
66.885,0.004
66.9,0.037
66.915,0.04
66.93,0.03
66.945,0.031
66.96,-0.14
66.975,-0.151
66.99,-0.087
67.005,-0.074
67.02,-0.106
67.035,-0.052
67.05,-0.023
67.065,0.003
67.08,-0.102
67.095,-0.052
67.11,-0.088
67.125,-0.089
67.14,-0.08
67.155,-0.175
67.17,-0.073
67.185,0.025
67.2,0.03
67.215,-0.014
67.23,-0.012
67.245,-0.055
67.26,-0.078
67.275,-0.078
67.29,-0.056
67.305,-0.041
67.32,-0.055
67.335,-0.138
67.35,-0.089
67.365,0.009
67.38,0.01
67.395,-0.025
67.41,-0.104
67.425,-0.067
67.44,-0.018
67.455,-0.131
67.47,-0.048
67.485,-0.102
67.5,-0.096
67.515,-0.002
67.53,-0.005
67.545,-0.101
67.56,-0.012
67.575,-0.068
67.59,-0.135
67.605,-0.018
67.62,0.019
67.635,0.011
67.65,-0.063
67.665,-0.129
67.68,0.054
67.695,0.15
67.71,0.081
67.725,-0.028
67.74,-0.012
67.755,0.025
67.77,-0.065
67.785,0
67.8,0.066
67.815,0.116
67.83,0.034
67.845,0.019
67.86,-0.022
67.875,-0.081
67.89,-0.019
67.905,-0.013
67.92,-0.06
67.935,0.029
67.95,0.152
67.965,0.096
67.98,0.087
67.995,0.065
68.01,-0.003
68.025,0.049
68.04,0.08
68.055,0.05
68.07,-0.01
68.085,0.066
68.1,-0.062
68.115,-0.051
68.13,-0.082
68.145,-0.15
68.16,-0.056
68.175,-0.056
68.19,-0.002
68.205,-0.07
68.22,-0.192
68.235,-0.095
68.25,-0.069
68.265,-0.065
68.28,-0.053
68.295,0.034
68.31,0.075
68.325,0.018
68.34,0.036
68.355,0.061
68.37,0.088
68.385,0.11
68.4,-0.048
68.415,-0.21
68.43,-0.081
68.445,-0.031
68.46,-0.049
68.475,-0.008
68.49,-0.063
68.505,0.019
68.52,-0.044
68.535,-0.06
68.55,-0.025
68.565,-0.094
68.58,-0.192
68.595,-0.052
68.61,0.084
68.625,-0.007
68.64,-0.021
68.655,0.007
68.67,-0.005
68.685,0.042
68.7,0.023
68.715,0.074
68.73,0.113
68.745,0.008
68.76,0.106
68.775,0.039
68.79,0.122
68.805,0.222
68.82,0.09
68.835,0.049
68.85,0.048
68.865,-0.123
68.88,-0.112
68.895,-0.037
68.91,-0.022
68.925,-0.089
68.94,-0.083
68.955,-0.05
68.97,-0.061
68.985,-0.05
69,-0.102
69.015,-0.046
69.03,0.024
69.045,0.069
69.06,0.106
69.075,0.008
69.09,0.064
69.105,-0.012
69.12,0.149
69.135,0.219
69.15,0.132
69.165,0.127
69.18,0.201
69.195,0.073
69.21,0.053
69.225,0.112
69.24,0.085
69.255,0.04
69.27,0.015
69.285,0.153
69.3,0.129
69.315,0.125
69.33,0.104
69.345,0.095
69.36,0.03
69.375,0.117
69.39,0.159
69.405,0.209
69.42,0.259
69.435,0.16
69.45,-0.016
69.465,0.029
69.48,0.088
69.495,0.136
69.51,0.23
69.525,0.129
69.54,0.08
69.555,0.084
69.57,0.076
69.585,0.127
69.6,0.137
69.615,0.103
69.63,0.074
69.645,0.028
69.66,0.073
69.675,0.148
69.69,0.107
69.705,0.097
69.72,0.183
69.735,0.183
69.75,0.194
69.765,0.085
69.78,0.062
69.795,0.058
69.81,-0.015
69.825,0.101
69.84,0.246
69.855,0.215
69.87,0.048
69.885,0.099
69.9,0.215
69.915,0.246
69.93,0.169
69.945,0.221
69.96,0.247
69.975,0.239
69.99,0.215
70.005,0.241
70.02,0.246
70.035,0.269
70.05,0.34
70.065,0.351
70.08,0.449
70.095,0.256
70.11,0.085
70.125,0.127
70.14,0.054
70.155,0.151
70.17,0.203
70.185,0.148
70.2,0.185
70.215,0.177
70.23,0.221
70.245,0.32
70.26,0.166
70.275,0.166
70.29,0.266
70.305,0.316
70.32,0.336
70.335,0.378
70.35,0.267
70.365,0.36
70.38,0.289
70.395,0.339
70.41,0.406
70.425,0.422
70.44,0.344
70.455,0.306
70.47,0.375
70.485,0.328
70.5,0.435
70.515,0.517
70.53,0.459
70.545,0.517
70.56,0.326
70.575,0.306
70.59,0.427
70.605,0.545
70.62,0.444
70.635,0.441
70.65,0.348
70.665,0.317
70.68,0.571
70.695,0.641
70.71,0.442
70.725,0.494
70.74,0.549
70.755,0.467
70.77,0.573
70.785,0.609
70.8,0.541
70.815,0.554
70.83,0.518
70.845,0.608
70.86,0.54
70.875,0.585
70.89,0.628
70.905,0.645
70.92,0.639
70.935,0.518
70.95,0.583
70.965,0.623
70.98,0.768
70.995,0.732
71.01,0.581
71.025,0.582
71.04,0.727
71.055,0.687
71.07,0.626
71.085,0.764
71.1,0.745
71.115,0.61
71.13,0.579
71.145,0.53
71.16,0.49
71.175,0.682
71.19,0.679
71.205,0.571
71.22,0.505
71.235,0.523
71.25,0.653
71.265,0.669
71.28,0.648
71.295,0.564
71.31,0.575
71.325,0.567
71.34,0.573
71.355,0.653
71.37,0.714
71.385,0.611
71.4,0.637
71.415,0.677
71.43,0.707
71.445,0.58
71.46,0.595
71.475,0.601
71.49,0.512
71.505,0.529
71.52,0.533
71.535,0.658
71.55,0.67
71.565,0.647
71.58,0.684
71.595,0.663
71.61,0.545
71.625,0.524
71.64,0.589
71.655,0.566
71.67,0.447
71.685,0.427
71.7,0.504
71.715,0.567
71.73,0.52
71.745,0.523
71.76,0.623
71.775,0.508
71.79,0.532
71.805,0.492
71.82,0.511
71.835,0.595
71.85,0.584
71.865,0.575
71.88,0.592
71.895,0.485
71.91,0.457
71.925,0.567
71.94,0.661
71.955,0.607
71.97,0.582
71.985,0.602
72,0.69
72.015,0.785
72.03,0.667
72.045,0.574
72.06,0.565
72.075,0.654
72.09,0.604
72.105,0.634
72.12,0.566
72.135,0.604
72.15,0.706
72.165,0.63
72.18,0.567
72.195,0.685
72.21,0.678
72.225,0.584
72.24,0.549
72.255,0.577
72.27,0.721
72.285,0.79
72.3,0.744
72.315,0.724
72.33,0.779
72.345,0.88
72.36,0.815
72.375,0.788
72.39,0.745
72.405,0.706
72.42,0.715
72.435,0.799
72.45,0.718
72.465,0.665
72.48,0.768
72.495,0.774
72.51,0.752
72.525,0.717
72.54,0.707
72.555,0.752
72.57,0.812
72.585,0.803
72.6,0.735
72.615,0.697
72.63,0.795
72.645,0.739
72.66,0.723
72.675,0.865
72.69,0.809
72.705,0.678
72.72,0.758
72.735,0.875
72.75,0.818
72.765,0.846
72.78,0.886
72.795,1.03
72.81,0.957
72.825,0.886
72.84,1.011
72.855,0.936
72.87,0.894
72.885,1.006
72.9,0.834
72.915,0.824
72.93,1.014
72.945,0.952
72.96,0.895
72.975,0.847
72.99,0.875
73.005,0.879
73.02,0.914
73.035,0.953
73.05,0.94
73.065,1.032
73.08,0.963
73.095,0.989
73.11,0.884
73.125,0.806
73.14,1.004
73.155,0.948
73.17,0.909
73.185,0.945
73.2,0.941
73.215,1.069
73.23,1.121
73.245,1.128
73.26,1.106
73.275,1.073
73.29,1.209
73.305,1.122
73.32,1.067
73.335,1.046
73.35,1.057
73.365,1.109
73.38,1.169
73.395,1.215
73.41,1.221
73.425,1.199
73.44,1.098
73.455,1.104
73.47,1.154
73.485,1.079
73.5,1.21
73.515,1.29
73.53,1.167
73.545,1.259
73.56,1.231
73.575,1.306
73.59,1.383
73.605,1.39
73.62,1.408
73.635,1.474
73.65,1.346
73.665,1.369
73.68,1.486
73.695,1.439
73.71,1.514
73.725,1.644
73.74,1.705
73.755,1.717
73.77,1.764
73.785,1.728
73.8,1.715
73.815,1.722
73.83,1.718
73.845,1.759
73.86,1.732
73.875,1.804
73.89,1.858
73.905,1.851
73.92,1.673
73.935,1.628
73.95,1.762
73.965,1.872
73.98,1.944
73.995,1.821
74.01,1.824
74.025,1.874
74.04,1.978
74.055,1.977
74.07,1.89
74.085,1.851
74.1,1.862
74.115,1.874
74.13,1.952
74.145,1.87
74.16,1.856
74.175,1.852
74.19,1.951
74.205,1.845
74.22,1.958
74.235,2.17
74.25,1.983
74.265,1.757
74.28,1.736
74.295,1.976
74.31,1.962
74.325,1.922
74.34,1.756
74.355,1.688
74.37,1.83
74.385,1.854
74.4,1.825
74.415,1.7
74.43,1.788
74.445,1.781
74.46,1.678
74.475,1.782
74.49,1.87
74.505,1.889
74.52,1.821
74.535,1.752
74.55,1.817
74.565,1.727
74.58,1.701
74.595,1.771
74.61,1.837
74.625,1.779
74.64,1.706
74.655,1.682
74.67,1.853
74.685,1.911
74.7,1.836
74.715,1.853
74.73,1.816
74.745,1.752
74.76,1.843
74.775,1.861
74.79,1.926
74.805,1.83
74.82,1.894
74.835,1.93
74.85,1.919
74.865,1.932
74.88,1.992
74.895,1.963
74.91,1.884
74.925,2.067
74.94,2.104
74.955,1.965
74.97,1.927
74.985,2.035
75,2.027
75.015,1.824
75.03,1.744
75.045,1.838
75.06,1.625
75.075,1.363
75.09,1.424
75.105,1.701
75.12,1.667
75.135,1.472
75.15,1.255
75.165,1.306
75.18,1.384
75.195,1.485
75.21,1.267
75.225,1.294
75.24,1.387
75.255,1.101
75.27,1.076
75.285,1.001
75.3,1.341
75.315,1.407
75.33,1.746
75.345,0
