24.99,0
25,0.439
25.01,0.151
25.02,0.428
25.03,0.597
25.04,0.349
25.05,0.419
25.06,0.488
25.07,0.39
25.08,0.492
25.09,0.291
25.1,0.5
25.11,0.392
25.12,0.495
25.13,0.535
25.14,0.491
25.15,0.466
25.16,0.27
25.17,0.317
25.18,0.36
25.19,0.191
25.2,0.33
25.21,0.358
25.22,0.272
25.23,0.456
25.24,0.491
25.25,0.422
25.26,0.626
25.27,0.464
25.28,0.293
25.29,0.523
25.3,0.387
25.31,0.492
25.32,0.495
25.33,0.451
25.34,0.278
25.35,0.201
25.36,0.223
25.37,0.233
25.38,0.334
25.39,0.288
25.4,0.404
25.41,0.348
25.42,0.201
25.43,0.304
25.44,0.38
25.45,0.386
25.46,0.414
25.47,0.275
25.48,0.235
25.49,0.167
25.5,0.307
25.51,0.286
25.52,0.349
25.53,0.31
25.54,0.294
25.55,0.148
25.56,0.251
25.57,0.191
25.58,0.273
25.59,0.284
25.6,0.372
25.61,0.297
25.62,0.353
25.63,0.194
25.64,0.181
25.65,0.259
25.66,0.269
25.67,0.269
25.68,0.367
25.69,0.386
25.7,0.388
25.71,0.377
25.72,0.336
25.73,0.299
25.74,0.184
25.75,0.144
25.76,0.139
25.77,0.253
25.78,0.177
25.79,0.145
25.8,0.147
25.81,0.122
25.82,0.201
25.83,0.1
25.84,0.175
25.85,0.251
25.86,0.212
25.87,0.148
25.88,0.244
25.89,0.149
25.9,0.174
25.91,0.179
25.92,0.289
25.93,0.121
25.94,0.276
25.95,0.128
25.96,0.21
25.97,0.07
25.98,0.208
25.99,0.19
26,0.102
26.01,0.054
26.02,0.071
26.03,0.094
26.04,0.098
26.05,0.242
26.06,0.145
26.07,0.139
26.08,0.069
26.09,0.285
26.1,0.142
26.11,0.193
26.12,0.248
26.13,0.189
26.14,0.23
26.15,0.094
26.16,0.063
26.17,0.057
26.18,0.035
26.19,0.091
26.2,0.079
26.21,0.146
26.22,0.111
26.23,0.095
26.24,0.096
26.25,0.071
26.26,0.125
26.27,0.051
26.28,0.12
26.29,0.047
26.3,0.018
26.31,0.164
26.32,0.115
26.33,0.13
26.34,0.1
26.35,0.052
26.36,0.205
26.37,0.07
26.38,0.098
26.39,0.089
26.4,0.102
26.41,0.202
26.42,0.163
26.43,0.163
26.44,0.055
26.45,0.029
26.46,0.055
26.47,-0.066
26.48,0.134
26.49,0.024
26.5,-0.008
26.51,0.103
26.52,0.055
26.53,0.029
26.54,0.063
26.55,-0.016
26.56,-0.031
26.57,0.047
26.58,0.07
26.59,0.032
26.6,0.046
26.61,0.011
26.62,-0.056
26.63,0.118
26.64,0.016
26.65,0.07
26.66,0.152
26.67,0.127
26.68,0.022
26.69,0.072
26.7,0.095
26.71,0.033
26.72,0.017
26.73,-0.008
26.74,-0.097
26.75,0.015
26.76,-0.005
26.77,0.022
26.78,-0.027
26.79,-0.118
26.8,-0.057
26.81,-0.02
26.82,-0.006
26.83,-0.057
26.84,-0.046
26.85,-0.06
26.86,-0.088
26.87,-0.107
26.88,-0.074
26.89,-0.039
26.9,-0.072
26.91,0.009
26.92,-0.068
26.93,0.005
26.94,0.153
26.95,-0.035
26.96,0.061
26.97,-0.001
26.98,-0.038
26.99,0.047
27,0.057
27.01,-0.072
27.02,-0.016
27.03,0.011
27.04,0.015
27.05,0.055
27.06,0.012
27.07,0.017
27.08,0.031
27.09,-0.024
27.1,-0.048
27.11,-0.018
27.12,0.017
27.13,-0.118
27.14,-0.056
27.15,-0.024
27.16,0.033
27.17,0.093
27.18,-0.038
27.19,0.075
27.2,0.088
27.21,0.13
27.22,0.114
27.23,-0.031
27.24,-0.02
27.25,-0.002
27.26,0.057
27.27,-0.026
27.28,-0.087
27.29,-0.042
27.3,-0.022
27.31,-0.024
27.32,0.062
27.33,-0.047
27.34,0.003
27.35,0.011
27.36,0.011
27.37,-0.041
27.38,-0.012
27.39,-0.032
27.4,-0.006
27.41,0.086
27.42,0.001
27.43,0.031
27.44,-0.067
27.45,-0.053
27.46,-0.01
27.47,-0.005
27.48,-0.075
27.49,-0.116
27.5,-0.023
27.51,-0.104
27.52,-0.111
27.53,-0.118
27.54,-0.114
27.55,-0.053
27.56,0.02
27.57,0.051
27.58,-0.065
27.59,0.086
27.6,-0.015
27.61,-0.038
27.62,-0.025
27.63,-0.056
27.64,-0.109
27.65,0.02
27.66,0.006
27.67,-0.023
27.68,0.082
27.69,-0.057
27.7,0.063
27.71,0.09
27.72,0.022
27.73,-0.013
27.74,0.065
27.75,0.103
27.76,-0.099
27.77,-0.037
27.78,-0.034
27.79,-0.039
27.8,0.106
27.81,0.082
27.82,0.038
27.83,0.053
27.84,0.041
27.85,-0.019
27.86,0.045
27.87,0.006
27.88,-0.023
27.89,0.08
27.9,-0.022
27.91,-0.032
27.92,0.008
27.93,-0.053
27.94,0.014
27.95,0.137
27.96,0.065
27.97,0.012
27.98,0.019
27.99,0.011
28,-0.057
28.01,0.043
28.02,0.044
28.03,-0.001
28.04,0.077
28.05,0.058
28.06,0.108
28.07,0.069
28.08,0.028
28.09,0.047
28.1,0.03
28.11,0.067
28.12,0.01
28.13,0.037
28.14,0.05
28.15,-0.047
28.16,0.012
28.17,-0.127
28.18,-0.013
28.19,0.036
28.2,0.084
28.21,0.075
28.22,0.083
28.23,0.008
28.24,0.048
28.25,-0.006
28.26,0.025
28.27,-0.007
28.28,0.072
28.29,0.048
28.3,-0.002
28.31,-0.004
28.32,-0.056
28.33,0.05
28.34,0.065
28.35,0.086
28.36,0.003
28.37,0.142
28.38,0.054
28.39,0.039
28.4,0.043
28.41,0.002
28.42,-0.102
28.43,-0.117
28.44,-0.102
28.45,0.001
28.46,0.1
28.47,0.041
28.48,0.097
28.49,0.047
28.5,0.023
28.51,-0.047
28.52,0.031
28.53,-0.005
28.54,-0.008
28.55,0.104
28.56,0.012
28.57,0.117
28.58,0.134
28.59,0.068
28.6,0.05
28.61,0.128
28.62,0.095
28.63,0.031
28.64,0.08
28.65,0.145
28.66,0.091
28.67,0.043
28.68,0.085
28.69,0.026
28.7,0.043
28.71,-0.007
28.72,0.006
28.73,0.074
28.74,0.003
28.75,0.016
28.76,0.044
28.77,-0.066
28.78,0.03
28.79,0.044
28.8,0.082
28.81,0.088
28.82,0.12
28.83,-0.033
28.84,0.012
28.85,-0.006
28.86,-0.009
28.87,0.036
28.88,0.038
28.89,0.024
28.9,-0.002
28.91,0.04
28.92,-0.031
28.93,0.036
28.94,0.167
28.95,0
28.96,0.07
28.97,0.125
28.98,0.061
28.99,0.072
29,0.123
29.01,0.095
29.02,0.039
29.03,-0.032
29.04,0.118
29.05,-0.024
29.06,0.028
29.07,-0.002
29.08,0.026
29.09,0.081
29.1,0.045
29.11,0.018
29.12,0.015
29.13,0.049
29.14,0.058
29.15,0.049
29.16,0.112
29.17,0.061
29.18,0.181
29.19,0.1
29.2,0.093
29.21,0.149
29.22,0.103
29.23,0.22
29.24,0.219
29.25,0.152
29.26,0.135
29.27,0.234
29.28,0.195
29.29,0.134
29.3,0.25
29.31,0.156
29.32,0.126
29.33,0.224
29.34,0.149
29.35,0.196
29.36,0.275
29.37,0.244
29.38,0.253
29.39,0.253
29.4,0.25
29.41,0.215
29.42,0.205
29.43,0.18
29.44,0.289
29.45,0.413
29.46,0.357
29.47,0.361
29.48,0.466
29.49,0.404
29.5,0.398
29.51,0.419
29.52,0.317
29.53,0.385
29.54,0.452
29.55,0.472
29.56,0.43
29.57,0.634
29.58,0.487
29.59,0.582
29.6,0.557
29.61,0.503
29.62,0.545
29.63,0.655
29.64,0.621
29.65,0.601
29.66,0.791
29.67,0.854
29.68,0.788
29.69,0.943
29.7,1.003
29.71,1.11
29.72,1.236
29.73,1.245
29.74,1.333
29.75,1.468
29.76,1.554
29.77,1.671
29.78,1.846
29.79,1.951
29.8,2.098
29.81,2.264
29.82,2.434
29.83,2.519
29.84,2.838
29.85,2.917
29.86,3.216
29.87,3.352
29.88,3.604
29.89,3.735
29.9,4.083
29.91,4.26
29.92,4.292
29.93,4.584
29.94,4.661
29.95,4.994
29.96,5.292
29.97,5.42
29.98,5.644
29.99,5.824
30,5.999
30.01,6.194
30.02,6.392
30.03,6.457
30.04,6.629
30.05,6.835
30.06,6.9
30.07,7.075
30.08,7.269
30.09,7.274
30.1,7.416
30.11,7.569
30.12,7.583
30.13,7.684
30.14,7.824
30.15,7.754
30.16,7.706
30.17,7.685
30.18,7.642
30.19,7.494
30.2,7.616
30.21,7.473
30.22,7.32
30.23,7.309
30.24,7.139
30.25,6.97
30.26,6.861
30.27,6.802
30.28,6.556
30.29,6.32
30.3,6.163
30.31,6.008
30.32,5.89
30.33,5.579
30.34,5.426
30.35,5.325
30.36,5.061
30.37,4.812
30.38,4.619
30.39,4.303
30.4,4.178
30.41,3.955
30.42,3.694
30.43,3.528
30.44,3.397
30.45,3.202
30.46,2.997
30.47,2.94
30.48,2.744
30.49,2.525
30.5,2.355
30.51,2.144
30.52,1.969
30.53,1.867
30.54,1.698
30.55,1.506
30.56,1.503
30.57,1.404
30.58,1.2
30.59,1.071
30.6,1.082
30.61,0.91
30.62,0.974
30.63,0.857
30.64,0.753
30.65,0.645
30.66,0.616
30.67,0.429
30.68,0.543
30.69,0.395
30.7,0.454
30.71,0.438
30.72,0.443
30.73,0.414
30.74,0.425
30.75,0.363
30.76,0.34
30.77,0.407
30.78,0.349
30.79,0.316
30.8,0.316
30.81,0.308
30.82,0.28
30.83,0.349
30.84,0.253
30.85,0.238
30.86,0.25
30.87,0.164
30.88,0.169
30.89,0.188
30.9,0.203
30.91,0.159
30.92,0.234
30.93,0.141
30.94,0.168
30.95,0.245
30.96,0.159
30.97,0.17
30.98,0.098
30.99,0.139
31,0.151
31.01,0.323
31.02,0.175
31.03,0.191
31.04,0.169
31.05,0.083
31.06,-0.035
31.07,0.072
31.08,0.108
31.09,-0.003
31.1,0.13
31.11,0.003
31.12,0.051
31.13,0.146
31.14,0.042
31.15,0.096
31.16,0.101
31.17,-0.004
31.18,-0.078
31.19,-0.009
31.2,-0.005
31.21,-0.009
31.22,0.062
31.23,0.01
31.24,0.007
31.25,0.044
31.26,0.086
31.27,-0.057
31.28,-0.005
31.29,-0.06
31.3,-0.029
31.31,-0.01
31.32,-0.034
31.33,-0.006
31.34,0.028
31.35,-0.042
31.36,-0.028
31.37,0.012
31.38,-0.032
31.39,-0.041
31.4,-0.003
31.41,-0.094
31.42,-0.081
31.43,-0.074
31.44,-0.028
31.45,-0.087
31.46,0.046
31.47,0.032
31.48,0.002
31.49,0.059
31.5,-0.009
31.51,0.006
31.52,0.019
31.53,-0.064
31.54,-0.029
31.55,0.077
31.56,0.016
31.57,-0.077
31.58,-0.038
31.59,-0.058
31.6,-0.08
31.61,0.03
31.62,-0.006
31.63,-0.039
31.64,0.025
31.65,-0.059
31.66,-0.076
31.67,0.047
31.68,-0.022
31.69,-0.036
31.7,0.001
31.71,-0.023
31.72,-0.052
31.73,0.134
31.74,0.01
31.75,0.005
31.76,-0.021
31.77,0.032
31.78,-0.069
31.79,0.071
31.8,-0.014
31.81,0.017
31.82,0.011
31.83,0.063
31.84,-0.063
31.85,0.075
31.86,-0.048
31.87,-0.103
31.88,-0.032
31.89,-0.038
31.9,-0.02
31.91,-0.064
31.92,-0.041
31.93,-0.048
31.94,0.055
31.95,0
31.96,-0.005
31.97,0.009
31.98,-0.115
31.99,-0.066
32,-0.076
32.01,0.048
32.02,-0.014
32.03,0.051
32.04,0.037
32.05,-0.002
32.06,0.018
32.07,-0.013
32.08,-0.018
32.09,-0.005
32.1,0.007
32.11,0.005
32.12,-0.008
32.13,0.048
32.14,-0.063
32.15,0.045
32.16,-0.101
32.17,-0.021
32.18,0.008
32.19,0.033
32.2,-0.015
32.21,0.058
32.22,0.056
32.23,0.021
32.24,-0.009
32.25,-0.077
32.26,-0.089
32.27,0.077
32.28,-0.074
32.29,0.023
32.3,0.047
32.31,0.017
32.32,0.053
32.33,0.043
32.34,0.025
32.35,0.03
32.36,0.094
32.37,0.002
32.38,0.04
32.39,0.067
32.4,-0.001
32.41,0.077
32.42,0.018
32.43,0.004
32.44,-0.06
32.45,0.024
32.46,-0.028
32.47,-0.033
32.48,0.001
32.49,-0.001
32.5,-0.115
32.51,-0.024
32.52,-0.02
32.53,0.018
32.54,0.128
32.55,0.12
32.56,0.102
32.57,0.087
32.58,0.012
32.59,0.004
32.6,0.06
32.61,0.034
32.62,-0.015
32.63,0.156
32.64,0.098
32.65,0.057
32.66,0.031
32.67,0.017
32.68,-0.036
32.69,0.01
32.7,-0.03
32.71,-0.05
32.72,0.055
32.73,-0.118
32.74,-0.057
32.75,0.089
32.76,0.061
32.77,0.067
32.78,0.116
32.79,0.067
32.8,0.034
32.81,0.121
32.82,0.106
32.83,0.05
32.84,0.178
32.85,-0.008
32.86,-0.014
32.87,0.111
32.88,0.01
32.89,0.099
32.9,0.05
32.91,0
32.92,0.004
32.93,0.082
32.94,0.033
32.95,0.049
32.96,0.049
32.97,-0.005
32.98,-0.018
32.99,-0.055
33,-0.094
33.01,-0.046
33.02,-0.062
33.03,0.053
33.04,-0.04
33.05,0.039
33.06,0.002
33.07,-0.002
33.08,0.036
33.09,-0.045
33.1,-0.001
33.11,0.001
33.12,0.022
33.13,-0.015
33.14,0.055
33.15,0.034
33.16,-0.016
33.17,0.109
33.18,0.075
33.19,-0.001
33.2,0.037
33.21,-0.036
33.22,0.011
33.23,-0.053
33.24,-0.045
33.25,-0.091
33.26,0.032
33.27,-0.022
33.28,-0.027
33.29,0.035
33.3,0.012
33.31,-0.073
33.32,-0.035
33.33,-0.091
33.34,-0.096
33.35,-0.005
33.36,-0.006
33.37,-0.062
33.38,0.006
33.39,0.045
33.4,-0.015
33.41,-0.055
33.42,-0.051
33.43,-0.054
33.44,0.052
33.45,-0.076
33.46,0.033
33.47,0.09
33.48,0.075
33.49,0.071
33.5,0.116
33.51,0.083
33.52,0.046
33.53,-0.012
33.54,-0.014
33.55,-0.037
33.56,-0.02
33.57,0.01
33.58,-0.02
33.59,-0.032
33.6,-0.051
33.61,-0.057
33.62,-0.096
33.63,0.016
33.64,-0.011
33.65,0.033
33.66,0.012
33.67,0.001
33.68,0.053
33.69,-0.015
33.7,-0.085
33.71,0.032
33.72,0.07
33.73,0.037
33.74,0.06
33.75,0.06
33.76,-0.018
33.77,0.178
33.78,0.169
33.79,0.035
33.8,0.025
33.81,0.067
33.82,0.033
33.83,0.112
33.84,0.162
33.85,0.138
33.86,0.179
33.87,0.025
33.88,0.023
33.89,0.055
33.9,0.082
33.91,0.16
33.92,0.121
33.93,0.086
33.94,0.033
33.95,0.147
33.96,0.101
33.97,0.104
33.98,0.151
33.99,0.105
34,0.1
34.01,0.256
34.02,0.193
34.03,0.201
34.04,0.222
34.05,0.16
34.06,0.169
34.07,0.151
34.08,0.126
34.09,0.137
34.1,0.249
34.11,0.137
34.12,0.145
34.13,0.245
34.14,0.112
34.15,0.19
34.16,0.177
34.17,0.209
34.18,0.268
34.19,0.319
34.2,0.263
34.21,0.292
34.22,0.324
34.23,0.305
34.24,0.303
34.25,0.306
34.26,0.363
34.27,0.259
34.28,0.36
34.29,0.282
34.3,0.262
34.31,0.458
34.32,0.39
34.33,0.244
34.34,0.462
34.35,0.318
34.36,0.315
34.37,0.262
34.38,0.376
34.39,0.29
34.4,0.374
34.41,0.348
34.42,0.399
34.43,0.571
34.44,0.44
34.45,0.57
34.46,0.519
34.47,0.511
34.48,0.552
34.49,0.49
34.5,0.43
34.51,0.428
34.52,0.586
34.53,0.528
34.54,0.621
34.55,0.707
34.56,0.682
34.57,0.63
34.58,0.691
34.59,0.63
34.6,0.712
34.61,0.805
34.62,0.827
34.63,0.794
34.64,0.912
34.65,0.955
34.66,0.864
34.67,0.954
34.68,1.043
34.69,1.063
34.7,1.121
34.71,1.091
34.72,1.142
34.73,1.258
34.74,1.237
34.75,1.263
34.76,1.403
34.77,1.341
34.78,1.346
34.79,1.415
34.8,1.352
34.81,1.541
34.82,1.607
34.83,1.691
34.84,1.621
34.85,1.784
34.86,1.748
34.87,1.777
34.88,1.824
34.89,1.83
34.9,1.865
34.91,2.004
34.92,2.012
34.93,2.07
34.94,2.198
34.95,2.305
34.96,2.398
34.97,2.608
34.98,2.707
34.99,2.801
35,3.017
35.01,3.217
35.02,3.481
35.03,3.621
35.04,3.775
35.05,3.951
35.06,4.192
35.07,4.521
35.08,4.778
35.09,5.27
35.1,5.486
35.11,5.835
35.12,6.286
35.13,6.66
35.14,7
35.15,7.6
35.16,7.898
35.17,8.298
35.18,8.911
35.19,9.458
35.2,9.994
35.21,10.674
35.22,11.207
35.23,11.649
35.24,12.244
35.25,12.758
35.26,13.406
35.27,14.111
35.28,14.783
35.29,15.247
35.3,15.87
35.31,16.51
35.32,16.943
35.33,17.611
35.34,18.097
35.35,18.644
35.36,19.192
35.37,19.707
35.38,20.071
35.39,20.69
35.4,21.07
35.41,21.399
35.42,21.839
35.43,22.098
35.44,22.222
35.45,22.704
35.46,22.89
35.47,23.082
35.48,23.253
35.49,23.252
35.5,23.232
35.51,23.176
35.52,23.249
35.53,23.13
35.54,23.181
35.55,22.869
35.56,22.519
35.57,22.301
35.58,21.972
35.59,21.608
35.6,21.332
35.61,20.992
35.62,20.463
35.63,20.135
35.64,19.602
35.65,19.085
35.66,18.626
35.67,17.92
35.68,17.439
35.69,16.961
35.7,16.307
35.71,15.708
35.72,15.063
35.73,14.429
35.74,13.839
35.75,13.287
35.76,12.678
35.77,12.021
35.78,11.614
35.79,10.968
35.8,10.39
35.81,9.838
35.82,9.342
35.83,8.79
35.84,8.391
35.85,7.846
35.86,7.301
35.87,6.875
35.88,6.38
35.89,6.011
35.9,5.658
35.91,5.391
35.92,4.944
35.93,4.691
35.94,4.262
35.95,4.046
35.96,3.799
35.97,3.519
35.98,3.334
35.99,3.103
36,2.911
36.01,2.672
36.02,2.647
36.03,2.533
36.04,2.339
36.05,2.249
36.06,2.053
36.07,1.942
36.08,1.928
36.09,1.797
36.1,1.609
36.11,1.689
36.12,1.614
36.13,1.559
36.14,1.516
36.15,1.535
36.16,1.416
36.17,1.422
36.18,1.355
36.19,1.303
36.2,1.349
36.21,1.327
36.22,1.217
36.23,1.258
36.24,1.112
36.25,1.111
36.26,1.146
36.27,1.118
36.28,1.055
36.29,0.967
36.3,0.978
36.31,0.93
36.32,1.02
36.33,1.006
36.34,0.822
36.35,0.928
36.36,0.826
36.37,0.877
36.38,0.854
36.39,0.767
36.4,0.677
36.41,0.653
36.42,0.768
36.43,0.656
36.44,0.743
36.45,0.702
36.46,0.608
36.47,0.646
36.48,0.6
36.49,0.503
36.5,0.527
36.51,0.485
36.52,0.501
36.53,0.52
36.54,0.464
36.55,0.46
36.56,0.501
36.57,0.523
36.58,0.423
36.59,0.488
36.6,0.491
36.61,0.416
36.62,0.45
36.63,0.531
36.64,0.457
36.65,0.636
36.66,0.557
36.67,0.613
36.68,0.703
36.69,0.641
36.7,0.57
36.71,0.698
36.72,0.662
36.73,0.672
36.74,0.658
36.75,0.711
36.76,0.748
36.77,0.828
36.78,0.831
36.79,0.849
36.8,0.84
36.81,0.806
36.82,0.838
36.83,0.961
36.84,1.007
36.85,0.982
36.86,1.045
36.87,1.018
36.88,1.121
36.89,1.1
36.9,1.102
36.91,1.171
36.92,1.23
36.93,1.135
36.94,1.276
36.95,1.329
36.96,1.33
36.97,1.309
36.98,1.522
36.99,1.4
37,1.445
37.01,1.425
37.02,1.497
37.03,1.472
37.04,1.551
37.05,1.542
37.06,1.439
37.07,1.54
37.08,1.621
37.09,1.466
37.1,1.619
37.11,1.525
37.12,1.444
37.13,1.542
37.14,1.504
37.15,1.494
37.16,1.546
37.17,1.47
37.18,1.402
37.19,1.531
37.2,1.336
37.21,1.332
37.22,1.37
37.23,1.372
37.24,1.256
37.25,1.275
37.26,1.147
37.27,1.068
37.28,1.162
37.29,1.081
37.3,1.037
37.31,1.016
37.32,0.957
37.33,0.904
37.34,0.994
37.35,0.869
37.36,0.824
37.37,0.87
37.38,0.87
37.39,0.739
37.4,0.84
37.41,0.652
37.42,0.536
37.43,0.543
37.44,0.386
37.45,0.391
37.46,0.351
37.47,0.456
37.48,0.328
37.49,0.384
37.5,0.368
37.51,0.298
37.52,0.322
37.53,0.319
37.54,0.221
37.55,0.166
37.56,0.139
37.57,0.117
37.58,0.166
37.59,0.18
37.6,0.075
37.61,0.181
37.62,0.063
37.63,-0.021
37.64,0.02
37.65,-0.035
37.66,0.004
37.67,-0.006
37.68,0.038
37.69,-0.075
37.7,0.091
37.71,-0.044
37.72,-0.08
37.73,-0.053
37.74,-0.022
37.75,0.003
37.76,0.032
37.77,0.012
37.78,-0.028
37.79,0.012
37.8,-0.047
37.81,-0.104
37.82,0.044
37.83,-0.03
37.84,-0.033
37.85,-0.08
37.86,-0.013
37.87,-0.059
37.88,-0.065
37.89,-0.049
37.9,-0.104
37.91,-0.023
37.92,-0.015
37.93,-0.077
37.94,0.007
37.95,-0.021
37.96,-0.064
37.97,0.03
37.98,-0.121
37.99,-0.03
38,0.02
38.01,0.126
38.02,0.015
38.03,0.078
38.04,-0.028
38.05,-0.034
38.06,0.066
38.07,-0.045
38.08,-0.021
38.09,0.079
38.1,0
38.11,0.037
38.12,0.02
38.13,0.012
38.14,-0.112
38.15,0.068
38.16,-0.126
38.17,-0.068
38.18,0.016
38.19,0.058
38.2,0.153
38.21,0.1
38.22,0.034
38.23,0.012
38.24,-0.003
38.25,0.063
38.26,0
38.27,0.059
38.28,-0.036
38.29,-0.046
38.3,-0.01
38.31,-0.044
38.32,-0.002
38.33,0.073
38.34,0.051
38.35,0.043
38.36,0.071
38.37,0.105
38.38,0.116
38.39,0.036
38.4,-0.021
38.41,-0.15
38.42,0.021
38.43,0.005
38.44,-0.093
38.45,-0.051
38.46,-0.045
38.47,0.029
38.48,0.045
38.49,0.023
38.5,-0.011
38.51,0.073
38.52,-0.052
38.53,-0.112
38.54,-0.026
38.55,-0.008
38.56,0.001
38.57,0.1
38.58,0.059
38.59,0.061
38.6,0.1
38.61,0.059
38.62,-0.014
38.63,0.025
38.64,0.106
38.65,0.003
38.66,0.038
38.67,0.033
38.68,-0.043
38.69,0.054
38.7,-0.009
38.71,0.01
38.72,0.09
38.73,-0.02
38.74,-0.071
38.75,0.08
38.76,-0.021
38.77,0.036
38.78,0.05
38.79,0.052
38.8,-0.035
38.81,0.114
38.82,0.007
38.83,0.084
38.84,0.098
38.85,0.081
38.86,0.024
38.87,-0.028
38.88,0.099
38.89,-0.038
38.9,0.052
38.91,0.055
38.92,0.003
38.93,0.018
38.94,0.024
38.95,-0.003
38.96,-0.004
38.97,-0.043
38.98,-0.008
38.99,0.039
39,-0.042
39.01,-0.082
39.02,0.097
39.03,0.081
39.04,0.042
39.05,0.042
39.06,0.042
39.07,0.05
39.08,0.141
39.09,0.132
39.1,0.05
39.11,0.168
39.12,0.112
39.13,0.108
39.14,0.096
39.15,0.028
39.16,-0.039
39.17,0.042
39.18,0.059
39.19,-0.02
39.2,0.039
39.21,0.043
39.22,0.032
39.23,-0.069
39.24,-0.004
39.25,-0.125
39.26,0.025
39.27,-0.101
39.28,-0.069
39.29,-0.037
39.3,-0.017
39.31,0.036
39.32,-0.019
39.33,0.025
39.34,0.009
39.35,0.06
39.36,0.091
39.37,0.036
39.38,0.175
39.39,0.076
39.4,0.05
39.41,0.092
39.42,0.093
39.43,0.107
39.44,0.193
39.45,0.054
39.46,0.079
39.47,0.067
39.48,0.021
39.49,-0.063
39.5,0.019
39.51,-0.024
39.52,0.002
39.53,0.002
39.54,0.002
39.55,-0.049
39.56,0.007
39.57,-0.13
39.58,-0.008
39.59,0.08
39.6,-0.01
39.61,0.012
39.62,-0.028
39.63,0.051
39.64,0.026
39.65,0.225
39.66,0.084
39.67,0.02
39.68,0.08
39.69,-0.047
39.7,0.061
39.71,0.084
39.72,0.047
39.73,0.051
39.74,0.095
39.75,0.096
39.76,-0.053
39.77,0.052
39.78,0.139
39.79,0.014
39.8,0.181
39.81,0.008
39.82,0.051
39.83,0.018
39.84,0.027
39.85,-0.059
39.86,-0.016
39.87,0.044
39.88,0.088
39.89,0.037
39.9,0.031
39.91,-0.012
39.92,0.052
39.93,-0.046
39.94,-0.076
39.95,-0.041
39.96,0.027
39.97,-0.087
39.98,0.073
39.99,0.016
40,-0.051
40.01,0.002
40.02,-0.017
40.03,0.008
40.04,0.008
40.05,-0.073
40.06,-0.111
40.07,-0.03
40.08,0.021
40.09,0.036
40.1,0.095
40.11,-0.065
40.12,-0.063
40.13,0.036
40.14,0.107
40.15,-0.008
40.16,0.047
40.17,0.075
40.18,0.015
40.19,-0.018
40.2,-0.034
40.21,-0.063
40.22,0.017
40.23,0.008
40.24,0.001
40.25,0.07
40.26,-0.043
40.27,0.055
40.28,0.025
40.29,-0.05
40.3,-0.056
40.31,0.033
40.32,-0.064
40.33,-0.005
40.34,0.005
40.35,-0.096
40.36,-0.07
40.37,0.085
40.38,-0.018
40.39,-0.031
40.4,0.028
40.41,0.059
40.42,-0.041
40.43,-0.012
40.44,-0.048
40.45,-0.075
40.46,-0.033
40.47,-0.061
40.48,-0.031
40.49,0.025
40.5,0.024
40.51,-0.007
40.52,-0.013
40.53,0
40.54,-0.091
40.55,0.014
40.56,-0.002
40.57,0.089
40.58,0.031
40.59,-0.005
40.6,-0.074
40.61,0.057
40.62,0.02
40.63,-0.018
40.64,0.048
40.65,-0.009
40.66,-0.076
40.67,0.059
40.68,-0.03
40.69,0.037
40.7,0.057
40.71,0.04
40.72,0.068
40.73,0.059
40.74,0.082
40.75,0.029
40.76,0.072
40.77,-0.055
40.78,0.043
40.79,0.025
40.8,-0.072
40.81,-0.054
40.82,-0.106
40.83,-0.085
40.84,-0.079
40.85,-0.014
40.86,-0.083
40.87,0.043
40.88,-0.046
40.89,0.022
40.9,-0.071
40.91,0.05
40.92,0.043
40.93,-0.031
40.94,0.038
40.95,-0.013
40.96,-0.008
40.97,-0.039
40.98,-0.007
40.99,-0.062
41,0.01
41.01,-0.008
41.02,0.036
41.03,0.121
41.04,-0.01
41.05,-0.111
41.06,0.003
41.07,0.004
41.08,-0.061
41.09,0.043
41.1,-0.012
41.11,0.047
41.12,0.143
41.13,0.122
41.14,-0.021
41.15,0.037
41.16,0.034
41.17,0.045
41.18,0.114
41.19,0.085
41.2,-0.046
41.21,0.096
41.22,-0.014
41.23,-0.107
41.24,0.054
41.25,0.046
41.26,0.023
41.27,0.09
41.28,0.083
41.29,0.006
41.3,0.073
41.31,0.002
41.32,-0.009
41.33,0.045
41.34,0.015
41.35,-0.031
41.36,0.066
41.37,-0.048
41.38,-0.005
41.39,0.115
41.4,-0.035
41.41,0.006
41.42,-0.049
41.43,-0.031
41.44,-0.043
41.45,0.082
41.46,0.006
41.47,-0.043
41.48,-0.006
41.49,0.006
41.5,-0.081
41.51,-0.004
41.52,-0.111
41.53,-0.027
41.54,0.052
41.55,0.007
41.56,0.005
41.57,0.07
41.58,-0.051
41.59,0.027
41.6,0.048
41.61,-0.022
41.62,-0.009
41.63,0.118
41.64,0.012
41.65,-0.029
41.66,0.057
41.67,-0.088
41.68,-0.072
41.69,-0.032
41.7,-0.093
41.71,-0.111
41.72,-0.004
41.73,-0.078
41.74,-0.037
41.75,0.025
41.76,0.021
41.77,0.107
41.78,0.162
41.79,0.019
41.8,-0.039
41.81,-0.075
41.82,0.003
41.83,0.037
41.84,0.077
41.85,0.023
41.86,-0.045
41.87,0.101
41.88,0.037
41.89,-0.015
41.9,0.044
41.91,0.022
41.92,0.038
41.93,0.052
41.94,-0.014
41.95,-0.067
41.96,0.004
41.97,0.002
41.98,-0.006
41.99,0.135
42,-0.012
42.01,0.089
42.02,0.082
42.03,0.098
42.04,-0.025
42.05,0.039
42.06,0.025
42.07,0.028
42.08,0.096
42.09,0.222
42.1,0.036
42.11,0.081
42.12,-0.049
42.13,0
42.14,0.073
42.15,0.057
42.16,0.018
42.17,0.095
42.18,0.016
42.19,-0.01
42.2,0.163
42.21,0.005
42.22,0.051
42.23,0.072
42.24,0.082
42.25,0.008
42.26,0.158
42.27,0.149
42.28,0.127
42.29,0.242
42.3,0.155
42.31,0.207
42.32,0.236
42.33,0.191
42.34,0.22
42.35,0.196
42.36,0.134
42.37,0.162
42.38,0.191
42.39,0.218
42.4,0.143
42.41,0.204
42.42,0.271
42.43,0.181
42.44,0.274
42.45,0.315
42.46,0.283
42.47,0.361
42.48,0.382
42.49,0.288
42.5,0.466
42.51,0.357
42.52,0.362
42.53,0.377
42.54,0.298
42.55,0.327
42.56,0.467
42.57,0.487
42.58,0.377
42.59,0.495
42.6,0.497
42.61,0.463
42.62,0.597
42.63,0.623
42.64,0.658
42.65,0.845
42.66,0.711
42.67,0.739
42.68,0.814
42.69,0.915
42.7,0.78
42.71,0.971
42.72,0.946
42.73,0.993
42.74,1.124
42.75,1.175
42.76,1.204
42.77,1.325
42.78,1.385
42.79,1.342
42.8,1.509
42.81,1.544
42.82,1.75
42.83,1.787
42.84,1.918
42.85,1.981
42.86,2.184
42.87,2.131
42.88,2.272
42.89,2.449
42.9,2.539
42.91,2.691
42.92,2.847
42.93,2.91
42.94,2.97
42.95,3.151
42.96,3.313
42.97,3.376
42.98,3.444
42.99,3.517
43,3.543
43.01,3.785
43.02,3.911
43.03,4.021
43.04,4.144
43.05,4.121
43.06,4.173
43.07,4.373
43.08,4.333
43.09,4.343
43.1,4.44
43.11,4.526
43.12,4.51
43.13,4.651
43.14,4.66
43.15,4.635
43.16,4.604
43.17,4.581
43.18,4.492
43.19,4.561
43.2,4.498
43.21,4.37
43.22,4.398
43.23,4.304
43.24,4.107
43.25,4.165
43.26,3.946
43.27,3.841
43.28,3.846
43.29,3.668
43.3,3.669
43.31,3.464
43.32,3.492
43.33,3.216
43.34,3.175
43.35,2.95
43.36,2.922
43.37,2.766
43.38,2.636
43.39,2.484
43.4,2.413
43.41,2.261
43.42,2.117
43.43,2.077
43.44,1.97
43.45,1.777
43.46,1.662
43.47,1.583
43.48,1.452
43.49,1.535
43.5,1.389
43.51,1.233
43.52,1.184
43.53,1.065
43.54,0.953
43.55,1.048
43.56,0.928
43.57,0.869
43.58,0.85
43.59,0.718
43.6,0.65
43.61,0.598
43.62,0.556
43.63,0.501
43.64,0.522
43.65,0.468
43.66,0.364
43.67,0.444
43.68,0.426
43.69,0.335
43.7,0.362
43.71,0.31
43.72,0.269
43.73,0.42
43.74,0.334
43.75,0.302
43.76,0.344
43.77,0.239
43.78,0.291
43.79,0.374
43.8,0.195
43.81,0.271
43.82,0.151
43.83,0.165
43.84,0.204
43.85,0.219
43.86,0.18
43.87,0.151
43.88,0.151
43.89,0.238
43.9,0.243
43.91,0.279
43.92,0.082
43.93,0.064
43.94,0.26
43.95,0.204
43.96,0.19
43.97,0.244
43.98,0.08
43.99,0.063
44,0.098
44.01,0.092
44.02,0.148
44.03,0.094
44.04,0.074
44.05,0.025
44.06,0.141
44.07,0.082
44.08,0.056
44.09,0.165
44.1,0.083
44.11,0.023
44.12,0.048
44.13,0.025
44.14,0.07
44.15,0.119
44.16,-0.021
44.17,0.059
44.18,0.091
44.19,0.05
44.2,-0.034
44.21,-0.038
44.22,-0.1
44.23,-0.043
44.24,0.045
44.25,-0.072
44.26,-0.016
44.27,0.074
44.28,0.062
44.29,-0.001
44.3,0.081
44.31,0.039
44.32,-0.02
44.33,-0.013
44.34,-0.06
44.35,-0.107
44.36,0.019
44.37,0
44.38,-0.038
44.39,0.036
44.4,-0.027
44.41,-0.031
44.42,0.027
44.43,-0.036
44.44,-0.11
44.45,-0.024
44.46,0.071
44.47,-0.086
44.48,0.03
44.49,-0.002
44.5,-0.029
44.51,0.21
44.52,0.029
44.53,0.054
44.54,0.067
44.55,0.077
44.56,-0.033
44.57,0.048
44.58,-0.063
44.59,-0.023
44.6,-0.024
44.61,-0.01
44.62,0.024
44.63,0.102
44.64,0.037
44.65,-0.066
44.66,0.074
44.67,-0.019
44.68,-0.023
44.69,0.053
44.7,0.044
44.71,0.046
44.72,0.114
44.73,0.056
44.74,-0.051
44.75,0.017
44.76,-0.007
44.77,-0.024
44.78,0.041
44.79,-0.08
44.8,-0.061
44.81,-0.019
44.82,0.003
44.83,-0.006
44.84,0.075
44.85,-0.011
44.86,-0.015
44.87,0.046
44.88,0.102
44.89,-0.037
44.9,0.087
44.91,-0.053
44.92,-0.037
44.93,0.099
44.94,0.03
44.95,-0.047
44.96,0.032
44.97,-0.01
44.98,-0.002
44.99,0.053
45,-0.021
45.01,-0.078
45.02,-0.012
45.03,0.026
45.04,-0.03
45.05,0.051
45.06,-0.093
45.07,-0.097
45.08,0.079
45.09,-0.01
45.1,-0.002
45.11,0.034
45.12,0.005
45.13,0.028
45.14,0.082
45.15,0.049
45.16,-0.006
45.17,0.006
45.18,0.04
45.19,-0.019
45.2,0.107
45.21,0.04
45.22,-0.088
45.23,0.013
45.24,-0.005
45.25,0.057
45.26,0.08
45.27,0.049
45.28,-0.029
45.29,0.083
45.3,0.043
45.31,0.033
45.32,0.111
45.33,0.064
45.34,0.033
45.35,0.174
45.36,0.027
45.37,0.027
45.38,0.03
45.39,0.055
45.4,0.038
45.41,0.011
45.42,0.007
45.43,-0.129
45.44,-0.009
45.45,0.045
45.46,-0.014
45.47,0.203
45.48,0.085
45.49,0.103
45.5,0.068
45.51,0.064
45.52,-0.014
45.53,0.091
45.54,0
45.55,0.032
45.56,0.128
45.57,0.083
45.58,-0.033
45.59,0.126
45.6,0.054
45.61,0.007
45.62,0.058
45.63,0.045
45.64,0.062
45.65,0.15
45.66,0.092
45.67,0.03
45.68,0.042
45.69,0.028
45.7,-0.03
45.71,0.058
45.72,0.001
45.73,0.027
45.74,0.02
45.75,-0.078
45.76,-0.122
45.77,0.082
45.78,-0.006
45.79,0.028
45.8,0.145
45.81,0.021
45.82,0.031
45.83,0.009
45.84,-0.022
45.85,-0.015
45.86,0.075
45.87,0.098
45.88,0.012
45.89,0.127
45.9,0.076
45.91,0.043
45.92,0.055
45.93,-0.052
45.94,-0.054
45.95,0.048
45.96,0.021
45.97,-0.026
45.98,0.058
45.99,0
46,0.011
46.01,0.077
46.02,-0.018
46.03,0.026
46.04,0.16
46.05,0.103
46.06,-0.04
46.07,0.068
46.08,-0.076
46.09,0.011
46.1,-0.01
46.11,0.013
46.12,-0.066
46.13,0.058
46.14,0.034
46.15,-0.024
46.16,0.023
46.17,-0.04
46.18,-0.061
46.19,0.09
46.2,0.088
46.21,0.054
46.22,0.098
46.23,0.081
46.24,0.082
46.25,0.045
46.26,0.049
46.27,-0.072
46.28,0.022
46.29,0.054
46.3,-0.023
46.31,0.1
46.32,0.037
46.33,0.001
46.34,0.097
46.35,0.025
46.36,-0.034
46.37,0.031
46.38,0.039
46.39,-0.038
46.4,0.024
46.41,0.064
46.42,0
46.43,0.046
46.44,-0.11
46.45,-0.072
46.46,0.07
46.47,-0.026
46.48,-0.014
46.49,0.022
46.5,-0.025
46.51,-0.084
46.52,0.116
46.53,0.035
46.54,-0.012
46.55,0.005
46.56,0.029
46.57,-0.079
46.58,0.151
46.59,0.044
46.6,-0.02
46.61,0.006
46.62,-0.02
46.63,-0.071
46.64,0.071
46.65,-0.021
46.66,-0.017
46.67,0.101
46.68,-0.029
46.69,-0.039
46.7,0.071
46.71,0.028
46.72,0.034
46.73,0.02
46.74,-0.005
46.75,-0.028
46.76,0.073
46.77,-0.01
46.78,-0.04
46.79,0.029
46.8,0.045
46.81,-0.101
46.82,0.022
46.83,0.054
46.84,-0.047
46.85,0.123
46.86,0.04
46.87,-0.081
46.88,0.05
46.89,-0.07
46.9,-0.05
46.91,0.054
46.92,0.076
46.93,0.01
46.94,0.021
46.95,-0.003
46.96,-0.046
46.97,0.048
46.98,0.089
46.99,-0.023
47,0.102
47.01,0.012
47.02,-0.044
47.03,0.105
47.04,0.071
47.05,0.075
47.06,0.201
47.07,0.151
47.08,0.097
47.09,0.077
47.1,0.008
47.11,0.093
47.12,0.114
47.13,0.093
47.14,0.02
47.15,0.216
47.16,0.102
47.17,0.04
47.18,0.145
47.19,0.128
47.2,0.074
47.21,0.13
47.22,0.119
47.23,0.029
47.24,0.086
47.25,0.153
47.26,0.026
47.27,0.147
47.28,0.106
47.29,0.129
47.3,0.161
47.31,0.041
47.32,0.077
47.33,0.144
47.34,0.089
47.35,0.03
47.36,0.174
47.37,0.04
47.38,0.064
47.39,0.139
47.4,0.078
47.41,0.036
47.42,0.099
47.43,0.034
47.44,0.079
47.45,0.097
47.46,0.011
47.47,0.096
47.48,0.079
47.49,0.046
47.5,0.071
47.51,0.11
47.52,0.021
47.53,0.008
47.54,0.062
47.55,0.015
47.56,0.029
47.57,0.079
47.58,0.048
47.59,-0.08
47.6,0.03
47.61,0.026
47.62,0.019
47.63,0.057
47.64,0.009
47.65,-0.101
47.66,-0.019
47.67,0.051
47.68,-0.028
47.69,0.103
47.7,0.094
47.71,-0.039
47.72,0.125
47.73,0.013
47.74,-0.101
47.75,0.047
47.76,0.018
47.77,-0.048
47.78,0.105
47.79,0.115
47.8,0.036
47.81,0.1
47.82,0.095
47.83,-0.045
47.84,0.066
47.85,-0.034
47.86,-0.077
47.87,0.014
47.88,-0.061
47.89,-0.003
47.9,0.11
47.91,0.02
47.92,-0.016
47.93,0.009
47.94,0.064
47.95,-0.009
47.96,0.063
47.97,-0.016
47.98,-0.11
47.99,-0.023
48,-0.012
48.01,0.019
48.02,0.094
48.03,-0.004
48.04,-0.08
48.05,0.03
48.06,0.041
48.07,-0.054
48.08,0.11
48.09,0.05
48.1,-0.037
48.11,0.09
48.12,0.051
48.13,-0.034
48.14,0.014
48.15,0.063
48.16,0.065
48.17,0.016
48.18,0.057
48.19,0.035
48.2,0.109
48.21,0.117
48.22,0.016
48.23,0.037
48.24,-0.056
48.25,-0.105
48.26,-0.008
48.27,-0.078
48.28,-0.057
48.29,0.144
48.3,0.041
48.31,0.086
48.32,0.145
48.33,0.037
48.34,-0.029
48.35,-0.009
48.36,-0.036
48.37,-0.075
48.38,-0.028
48.39,0.019
48.4,0.011
48.41,0.044
48.42,0.039
48.43,0.009
48.44,0.117
48.45,-0.068
48.46,0.004
48.47,0.018
48.48,-0.026
48.49,0.031
48.5,0.046
48.51,0.1
48.52,-0.022
48.53,0.097
48.54,0.033
48.55,-0.026
48.56,0.131
48.57,-0.006
48.58,0.017
48.59,0.022
48.6,-0.063
48.61,-0.002
48.62,0.139
48.63,0.017
48.64,-0.044
48.65,0.093
48.66,0.015
48.67,0.069
48.68,-0.055
48.69,-0.091
48.7,-0.119
48.71,0.091
48.72,0.07
48.73,-0.065
48.74,0.084
48.75,0.02
48.76,0.024
48.77,-0.013
48.78,0.033
48.79,-0.117
48.8,-0.021
48.81,-0.047
48.82,-0.075
48.83,-0.012
48.84,0.044
48.85,-0.105
48.86,0.046
48.87,-0.046
48.88,-0.066
48.89,0.076
48.9,0.012
48.91,-0.054
48.92,0.086
48.93,0.008
48.94,-0.042
48.95,0.06
48.96,0.052
48.97,0.011
48.98,-0.017
48.99,-0.015
49,-0.038
49.01,0.098
49.02,0.052
49.03,-0.025
49.04,0.066
49.05,0.054
49.06,-0.012
49.07,0.036
49.08,0.005
49.09,0.036
49.1,0.118
49.11,0.076
49.12,0.027
49.13,0.103
49.14,-0.002
49.15,-0.061
49.16,0.059
49.17,0.033
49.18,0.022
49.19,0.045
49.2,0.024
49.21,-0.059
49.22,0.037
49.23,0.007
49.24,-0.035
49.25,0.095
49.26,0.038
49.27,0.037
49.28,0.078
49.29,0.094
49.3,-0.013
49.31,0.077
49.32,-0.027
49.33,-0.057
49.34,0.107
49.35,0.018
49.36,0.051
49.37,0.009
49.38,0.018
49.39,-0.028
49.4,0.051
49.41,-0.028
49.42,0.015
49.43,0.122
49.44,0.026
49.45,0.035
49.46,0.189
49.47,0.021
49.48,-0.005
49.49,0.05
49.5,-0.065
49.51,-0.079
49.52,0
49.53,0.036
49.54,-0.016
49.55,0.044
49.56,0.054
49.57,-0.085
49.58,-0.019
49.59,-0.027
49.6,-0.054
49.61,-0.001
49.62,0.044
49.63,-0.071
49.64,-0.007
49.65,-0.014
49.66,-0.094
49.67,0.058
49.68,-0.005
49.69,-0.003
49.7,0.133
49.71,0.006
49.72,-0.006
49.73,0.044
49.74,0.033
49.75,-0.074
49.76,0.067
49.77,0.066
49.78,0.091
49.79,0.095
49.8,0.022
49.81,0.034
49.82,0.068
49.83,0.04
49.84,-0.003
49.85,0.128
49.86,0.002
49.87,-0.001
49.88,0.079
49.89,0.022
49.9,-0.101
49.91,0.006
49.92,-0.039
49.93,0.014
49.94,0.17
49.95,0.001
49.96,0.037
49.97,-0.029
49.98,-0.047
49.99,-0.032
50,-0.075
50.01,0.022
50.02,-0.109
50.03,-0.037
50.04,-0.049
50.05,-0.011
50.06,-0.015
50.07,-0.009
50.08,-0.067
50.09,0.105
50.1,0.018
50.11,0.052
50.12,0.019
50.13,0.063
50.14,-0.045
50.15,0.056
50.16,0.033
50.17,0.041
50.18,0.092
50.19,0
50.2,0.022
50.21,-0.012
50.22,0.049
50.23,-0.1
50.24,0.105
50.25,-0.018
50.26,0.049
50.27,0.065
50.28,0.176
50.29,0.089
50.3,0.102
50.31,-0.009
50.32,-0.011
50.33,0.106
50.34,0.011
50.35,0.031
50.36,0.113
50.37,0.007
50.38,-0.059
50.39,0.026
50.4,0.019
50.41,-0.078
50.42,0.151
50.43,0.023
50.44,-0.109
50.45,-0.056
50.46,-0.022
50.47,-0.052
50.48,0.129
50.49,-0.014
50.5,0.082
50.51,0.078
50.52,0.046
50.53,-0.031
50.54,0.014
50.55,0.035
50.56,-0.033
50.57,0.029
50.58,-0.024
50.59,-0.025
50.6,0.022
50.61,-0.033
50.62,-0.013
50.63,0.031
50.64,0.136
50.65,-0.022
50.66,0.071
50.67,-0.034
50.68,-0.031
50.69,0.097
50.7,0.128
50.71,-0.07
50.72,0.163
50.73,0.079
50.74,0.001
50.75,0.201
50.76,0.028
50.77,0.038
50.78,0.066
50.79,-0.02
50.8,-0.061
50.81,-0.013
50.82,0.012
50.83,0.013
50.84,0.065
50.85,0.099
50.86,0.083
50.87,0.07
50.88,-0.057
50.89,0.036
50.9,0.008
50.91,0.081
50.92,0.035
50.93,0.146
50.94,0.059
50.95,-0.04
50.96,0.071
50.97,0.018
50.98,0.087
50.99,0.121
51,0.013
51.01,0.009
51.02,0.028
51.03,0.011
51.04,-0.004
51.05,0.063
51.06,0.058
51.07,0.029
51.08,0.071
51.09,0.102
51.1,0.108
51.11,0.068
51.12,0.121
51.13,0.078
51.14,0.125
51.15,0.103
51.16,0.013
51.17,0.15
51.18,0.044
51.19,-0.025
51.2,0.059
51.21,0.045
51.22,-0.009
51.23,0.062
51.24,0.06
51.25,0.031
51.26,0.062
51.27,0.021
51.28,-0.051
51.29,0.118
51.3,0.093
51.31,0.097
51.32,0.09
51.33,0.027
51.34,-0.041
51.35,0.12
51.36,0.083
51.37,-0.086
51.38,0.105
51.39,0.019
51.4,-0.012
51.41,0.095
51.42,-0.022
51.43,-0.004
51.44,0.047
51.45,-0.047
51.46,-0.019
51.47,0.035
51.48,-0.004
51.49,-0.109
51.5,-0.053
51.51,0.107
51.52,0.032
51.53,0.105
51.54,0.119
51.55,-0.015
51.56,0.06
51.57,0.064
51.58,-0.04
51.59,0.095
51.6,-0.015
51.61,0.029
51.62,0.111
51.63,0.026
51.64,0.017
51.65,0.153
51.66,0.091
51.67,0.086
51.68,0.137
51.69,0.101
51.7,-0.006
51.71,0.049
51.72,0.053
51.73,-0.082
51.74,0.077
51.75,0.091
51.76,0.063
51.77,0.057
51.78,-0.113
51.79,-0.058
51.8,0.033
51.81,-0.037
51.82,-0.028
51.83,0.065
51.84,0.124
51.85,-0.006
51.86,0.082
51.87,0.081
51.88,0.081
51.89,0.027
51.9,0.046
51.91,-0.092
51.92,0.101
51.93,0.027
51.94,0.032
51.95,0.114
51.96,0.137
51.97,0.032
51.98,0.135
51.99,0.121
52,0.007
52.01,0.11
52.02,0.102
52.03,-0.019
52.04,0.071
52.05,0.067
52.06,-0.026
52.07,0.134
52.08,0.062
52.09,-0.016
52.1,0.043
52.11,0.038
52.12,0.014
52.13,0.136
52.14,0.096
52.15,0.059
52.16,0.133
52.17,0.1
52.18,0.026
52.19,0.032
52.2,0.055
52.21,-0.058
52.22,-0.022
52.23,0.048
52.24,-0.013
52.25,0.199
52.26,0.071
52.27,0.074
52.28,0.115
52.29,0.047
52.3,0.043
52.31,0.122
52.32,0.07
52.33,0.019
52.34,0.042
52.35,0.012
52.36,-0.105
52.37,-0.004
52.38,0.056
52.39,-0.029
52.4,0.052
52.41,0.058
52.42,0.031
52.43,0.062
52.44,0.05
52.45,0.001
52.46,0.095
52.47,0.018
52.48,-0.003
52.49,0.089
52.5,0.095
52.51,-0.099
52.52,0.108
52.53,0.063
52.54,0.129
52.55,0.167
52.56,0.019
52.57,0.005
52.58,0.071
52.59,0.015
52.6,-0.009
52.61,0.035
52.62,-0.068
52.63,-0.037
52.64,0.092
52.65,0.084
52.66,0.051
52.67,0.115
52.68,-0.001
52.69,-0.007
52.7,-0.041
52.71,0.03
52.72,0
52.73,0.105
52.74,0.021
52.75,-0.01
52.76,0.029
52.77,0.001
52.78,-0.017
52.79,0.078
52.8,0.103
52.81,-0.033
52.82,0.17
52.83,0.082
52.84,0.07
52.85,0.15
52.86,0.054
52.87,0.093
52.88,0.182
52.89,0.089
52.9,0.03
52.91,0.21
52.92,0.139
52.93,0.078
52.94,0.224
52.95,0.19
52.96,0.241
52.97,0.334
52.98,0.243
52.99,0.157
53,0.237
53.01,0.173
53.02,0.186
53.03,0.279
53.04,0.317
53.05,0.321
53.06,0.396
53.07,0.406
53.08,0.41
53.09,0.497
53.1,0.471
53.11,0.463
53.12,0.653
53.13,0.486
53.14,0.515
53.15,0.691
53.16,0.707
53.17,0.736
53.18,0.822
53.19,0.824
53.2,0.749
53.21,0.891
53.22,0.962
53.23,0.922
53.24,1.155
53.25,1.186
53.26,1.165
53.27,1.272
53.28,1.278
53.29,1.249
53.3,1.33
53.31,1.32
53.32,1.409
53.33,1.46
53.34,1.491
53.35,1.549
53.36,1.708
53.37,1.761
53.38,1.582
53.39,1.706
53.4,1.649
53.41,1.766
53.42,1.839
53.43,1.851
53.44,1.822
53.45,1.858
53.46,1.771
53.47,1.786
53.48,1.928
53.49,1.993
53.5,1.826
53.51,1.974
53.52,1.809
53.53,1.882
53.54,1.914
53.55,1.783
53.56,1.787
53.57,1.898
53.58,1.878
53.59,1.712
53.6,1.915
53.61,1.744
53.62,1.669
53.63,1.707
53.64,1.661
53.65,1.626
53.66,1.649
53.67,1.612
53.68,1.492
53.69,1.671
53.7,1.434
53.71,1.49
53.72,1.513
53.73,1.402
53.74,1.29
53.75,1.386
53.76,1.26
53.77,1.142
53.78,1.177
53.79,1.066
53.8,0.994
53.81,0.99
53.82,0.881
53.83,0.819
53.84,0.907
53.85,0.75
53.86,0.758
53.87,0.781
53.88,0.722
53.89,0.654
53.9,0.693
53.91,0.652
53.92,0.475
53.93,0.555
53.94,0.407
53.95,0.323
53.96,0.476
53.97,0.421
53.98,0.344
53.99,0.489
54,0.262
54.01,0.255
54.02,0.298
54.03,0.217
54.04,0.196
54.05,0.302
54.06,0.289
54.07,0.116
54.08,0.124
54.09,0.119
54.1,0.015
54.11,0.16
54.12,0.07
54.13,0.034
54.14,0.094
54.15,0.011
54.16,0.052
54.17,0.045
54.18,0.029
54.19,0.041
54.2,0.132
54.21,0.17
54.22,-0.031
54.23,0.147
54.24,0.054
54.25,0.005
54.26,0.211
54.27,0.031
54.28,0.04
54.29,0.15
54.3,0.056
54.31,-0.03
54.32,0.041
54.33,0.058
54.34,0.018
54.35,0.088
54.36,0.04
54.37,-0.006
54.38,0.094
54.39,-0.006
54.4,0.027
54.41,0.079
54.42,0.028
54.43,0.018
54.44,0.049
54.45,0.033
54.46,-0.026
54.47,0.126
54.48,-0.041
54.49,0.018
54.5,0.008
54.51,-0.03
54.52,0.024
54.53,0.089
54.54,-0.021
54.55,0.038
54.56,0.088
54.57,0.076
54.58,-0.004
54.59,0.07
54.6,0.121
54.61,0.029
54.62,0.153
54.63,0.027
54.64,-0.066
54.65,0.117
54.66,-0.063
54.67,0.016
54.68,0.007
54.69,-0.033
54.7,-0.047
54.71,0.043
54.72,-0.066
54.73,0.006
54.74,0.053
54.75,-0.074
54.76,-0.038
54.77,0
54.78,-0.019
54.79,0.034
54.8,0.048
54.81,-0.052
54.82,-0.048
54.83,0.035
54.84,0.041
54.85,-0.01
54.86,0.057
54.87,0.019
54.88,-0.054
54.89,0.053
54.9,0.008
54.91,0.029
54.92,0.035
54.93,-0.026
54.94,-0.054
54.95,0.083
54.96,-0.006
54.97,0.105
54.98,0.074
54.99,0.027
55,-0.004
55.01,0.03
55.02,-0.022
55.03,0.013
55.04,0.011
55.05,0.068
55.06,-0.044
55.07,0.015
55.08,-0.065
55.09,-0.127
55.1,0.065
55.11,0.026
55.12,0.013
55.13,0.126
55.14,0.028
55.15,-0.032
55.16,0.135
55.17,0.042
55.18,-0.027
55.19,0.076
55.2,-0.002
55.21,-0.051
55.22,0.054
55.23,0.074
55.24,0.004
55.25,0.09
55.26,0
55.27,-0.05
55.28,0.034
55.29,-0.072
55.3,-0.168
55.31,0.071
55.32,0.084
55.33,0.019
55.34,0.05
55.35,0.021
55.36,-0.095
55.37,0.006
55.38,0.02
55.39,0.037
55.4,0.106
55.41,0.075
55.42,0.081
55.43,0.109
55.44,0.143
55.45,0.002
55.46,0.167
55.47,0.135
55.48,0.034
55.49,0.08
55.5,-0.011
55.51,-0.049
55.52,0.114
55.53,0.035
55.54,0.126
55.55,0.028
55.56,0.035
55.57,0
55.58,0.143
55.59,0.086
55.6,0.056
55.61,0.168
55.62,0.052
55.63,0.037
55.64,0.008
55.65,0.028
55.66,0.015
55.67,0.114
55.68,0.117
55.69,-0.027
55.7,0.107
55.71,0.056
55.72,0.016
55.73,0.146
55.74,0.017
55.75,0.108
55.76,-0.013
55.77,0.035
55.78,0.004
55.79,-0.026
55.8,-0.008
55.81,0.019
55.82,0.031
55.83,0.149
55.84,-0.011
55.85,0.158
55.86,0.156
55.87,0.071
55.88,0.179
55.89,0.181
55.9,0.163
55.91,0.21
55.92,0.144
55.93,0.113
55.94,0.187
55.95,0.143
55.96,0.087
55.97,0.186
55.98,0.141
55.99,0.08
56,0.135
56.01,0.217
56.02,0.11
56.03,0.3
56.04,0.175
56.05,0.238
56.06,0.276
56.07,0.2
56.08,0.212
56.09,0.247
56.1,0.26
56.11,0.211
56.12,0.331
56.13,0.185
56.14,0.229
56.15,0.267
56.16,0.245
56.17,0.244
56.18,0.273
56.19,0.286
56.2,0.255
56.21,0.339
56.22,0.318
56.23,0.233
56.24,0.338
56.25,0.317
56.26,0.318
56.27,0.388
56.28,0.389
56.29,0.246
56.3,0.442
56.31,0.384
56.32,0.395
56.33,0.473
56.34,0.432
56.35,0.455
56.36,0.426
56.37,0.42
56.38,0.39
56.39,0.64
56.4,0.557
56.41,0.571
56.42,0.631
56.43,0.643
56.44,0.648
56.45,0.657
56.46,0.726
56.47,0.676
56.48,0.845
56.49,0.756
56.5,0.843
56.51,1.01
56.52,0.91
56.53,1.072
56.54,1.159
56.55,1.182
56.56,1.1
56.57,1.286
56.58,1.325
56.59,1.307
56.6,1.484
56.61,1.524
56.62,1.551
56.63,1.783
56.64,1.843
56.65,1.895
56.66,2.016
56.67,2.065
56.68,2.244
56.69,2.441
56.7,2.439
56.71,2.495
56.72,2.819
56.73,2.883
56.74,2.887
56.75,3.18
56.76,3.262
56.77,3.362
56.78,3.505
56.79,3.656
56.8,3.744
56.81,4.066
56.82,4.12
56.83,4.152
56.84,4.5
56.85,4.411
56.86,4.616
56.87,4.85
56.88,5.002
56.89,5.024
56.9,5.125
56.91,5.266
56.92,5.316
56.93,5.545
56.94,5.567
56.95,5.657
56.96,5.867
56.97,5.92
56.98,5.852
56.99,6.087
57,6.04
57.01,6.132
57.02,6.174
57.03,6.259
57.04,6.109
57.05,6.224
57.06,6.183
57.07,6.168
57.08,6.266
57.09,6.141
57.1,6.152
57.11,6.039
57.12,5.976
57.13,5.898
57.14,5.962
57.15,5.727
57.16,5.635
57.17,5.61
57.18,5.405
57.19,5.279
57.2,5.247
57.21,5.137
57.22,4.951
57.23,4.799
57.24,4.758
57.25,4.377
57.26,4.39
57.27,4.247
57.28,4.124
57.29,4.095
57.3,3.85
57.31,3.734
57.32,3.62
57.33,3.408
57.34,3.213
57.35,3.148
57.36,3.017
57.37,2.775
57.38,2.721
57.39,2.614
57.4,2.373
57.41,2.382
57.42,2.219
57.43,2.124
57.44,2.155
57.45,1.936
57.46,1.791
57.47,1.782
57.48,1.552
57.49,1.415
57.5,1.517
57.51,1.296
57.52,1.268
57.53,1.254
57.54,1.06
57.55,0.979
57.56,1.046
57.57,0.905
57.58,0.803
57.59,0.852
57.6,0.746
57.61,0.734
57.62,0.757
57.63,0.741
57.64,0.616
57.65,0.687
57.66,0.59
57.67,0.598
57.68,0.651
57.69,0.552
57.7,0.417
57.71,0.539
57.72,0.506
57.73,0.432
57.74,0.494
57.75,0.388
57.76,0.279
57.77,0.428
57.78,0.374
57.79,0.295
57.8,0.448
57.81,0.362
57.82,0.304
57.83,0.381
57.84,0.382
57.85,0.252
57.86,0.361
57.87,0.217
57.88,0.192
57.89,0.34
57.9,0.26
57.91,0.216
57.92,0.291
57.93,0.24
57.94,0.142
57.95,0.307
57.96,0.233
57.97,0.183
57.98,0.306
57.99,0.263
58,0.166
58.01,0.179
58.02,0.148
58.03,0.057
58.04,0.193
58.05,0.108
58.06,0.121
58.07,0.215
58.08,0.168
58.09,0.023
58.1,0.26
58.11,0.131
58.12,0.104
58.13,0.167
58.14,0.117
58.15,0.035
58.16,0.236
58.17,0.064
58.18,0.029
58.19,0.135
58.2,-0.019
58.21,-0.066
58.22,0.022
58.23,-0.008
58.24,0.015
58.25,0.14
58.26,0.119
58.27,0.058
58.28,0.082
58.29,0.159
58.3,0.01
58.31,0.062
58.32,0.062
58.33,-0.063
58.34,0.048
58.35,-0.038
58.36,-0.117
58.37,0.038
58.38,-0.009
58.39,-0.067
58.4,0.073
58.41,0.072
58.42,0.111
58.43,0.179
58.44,0.174
58.45,0.027
58.46,0.179
58.47,0.066
58.48,0.016
58.49,0.081
58.5,0.069
58.51,0.047
58.52,0.095
58.53,0.019
58.54,-0.078
58.55,0.117
58.56,0.053
58.57,0.109
58.58,0.188
58.59,0.098
58.6,0.042
58.61,-0.016
58.62,0.079
58.63,-0.043
58.64,0.071
58.65,0.09
58.66,-0.057
58.67,0.091
58.68,-0.003
58.69,-0.039
58.7,0.066
58.71,-0.051
58.72,-0.094
58.73,0.02
58.74,0.03
58.75,0.044
58.76,0.05
58.77,0.014
58.78,-0.013
58.79,0.037
58.8,0.003
58.81,-0.002
58.82,0.071
58.83,0.061
58.84,0.001
58.85,0.205
58.86,0.148
58.87,-0.022
58.88,0.01
58.89,-0.066
58.9,-0.109
58.91,0.001
58.92,0.056
58.93,0.026
58.94,0.029
58.95,0.021
58.96,-0.136
58.97,0.065
58.98,0
58.99,-0.12
59,0.071
59.01,-0.068
59.02,-0.096
59.03,0.061
59.04,-0.048
59.05,0.007
59.06,0.075
59.07,0.031
59.08,-0.033
59.09,0.057
59.1,-0.042
59.11,-0.017
59.12,0.159
59.13,-0.009
59.14,0.041
59.15,0.115
59.16,0.065
59.17,-0.038
59.18,0.07
59.19,0.067
59.2,-0.058
59.21,0.146
59.22,0.013
59.23,-0.043
59.24,0.029
59.25,0.02
59.26,-0.056
59.27,0.042
59.28,-0.037
59.29,-0.117
59.3,0.064
59.31,-0.02
59.32,-0.07
59.33,0.059
59.34,0.046
59.35,-0.004
59.36,0.09
59.37,0.02
59.38,0.002
59.39,0.074
59.4,0.063
59.41,-0.112
59.42,0.088
59.43,-0.067
59.44,-0.1
59.45,0.026
59.46,0.006
59.47,-0.097
59.48,0.097
59.49,-0.031
59.5,-0.095
59.51,0.013
59.52,-0.08
59.53,-0.053
59.54,0.014
59.55,0.008
59.56,-0.101
59.57,0.133
59.58,0.052
59.59,0.008
59.6,0.115
59.61,0.034
59.62,-0.021
59.63,0.026
59.64,-0.078
59.65,-0.065
59.66,0.11
59.67,0.067
59.68,-0.001
59.69,0.154
59.7,0.007
59.71,-0.092
59.72,0.017
59.73,0.052
59.74,-0.084
59.75,0.117
59.76,0.015
59.77,0.029
59.78,0.04
59.79,-0.04
59.8,-0.018
59.81,-0.053
59.82,-0.072
59.83,-0.079
59.84,0.051
59.85,-0.024
59.86,-0.163
59.87,0.071
59.88,0.012
59.89,-0.018
59.9,0.003
59.91,-0.089
59.92,-0.109
59.93,-0.027
59.94,0.007
59.95,-0.059
59.96,0.007
59.97,-0.045
59.98,-0.085
59.99,0.066
60,0.046
60.01,0.016
60.02,0.034
60.03,-0.026
60.04,0.009
60.05,0.037
60.06,-0.018
60.07,-0.059
60.08,0.023
60.09,0.096
60.1,-0.059
60.11,0.083
60.12,0.009
60.13,-0.018
60.14,0.092
60.15,-0.007
60.16,-0.08
60.17,0.039
60.18,0.039
60.19,-0.058
60.2,0.084
60.21,0.041
60.22,-0.119
60.23,0.044
60.24,-0.029
60.25,-0.026
60.26,0.047
60.27,0.016
60.28,-0.034
60.29,0.045
60.3,0.074
60.31,-0.059
60.32,0.088
60.33,0.026
60.34,-0.196
60.35,0.017
60.36,-0.064
60.37,-0.085
60.38,0.006
60.39,0.024
60.4,-0.07
60.41,0.044
60.42,0.013
60.43,-0.131
60.44,-0.011
60.45,-0.001
60.46,-0.079
60.47,-0.012
60.48,0.046
60.49,-0.081
60.5,0.041
60.51,0.037
60.52,-0.046
60.53,0.038
60.54,-0.057
60.55,-0.058
60.56,0.066
60.57,-0.04
60.58,-0.079
60.59,-0.051
60.6,-0.037
60.61,-0.067
60.62,0.063
60.63,0.012
60.64,-0.115
60.65,0.007
60.66,-0.034
60.67,-0.109
60.68,-0.03
60.69,-0.086
60.7,-0.082
60.71,0.011
60.72,0.076
60.73,-0.127
60.74,0.108
60.75,0.065
60.76,-0.066
60.77,-0.054
60.78,-0.058
60.79,-0.097
60.8,0.005
60.81,0.021
60.82,-0.074
60.83,0.1
60.84,0.065
60.85,-0.104
60.86,-0.012
60.87,-0.044
60.88,-0.143
60.89,0.078
60.9,0.035
60.91,-0.064
60.92,0.033
60.93,-0.036
60.94,0.064
60.95,0.012
60.96,-0.031
60.97,-0.129
60.98,0.057
60.99,-0.001
61,-0.051
61.01,-0.006
61.02,0.017
61.03,-0.128
61.04,-0.017
61.05,-0.083
61.06,-0.002
61.07,0.063
61.08,0.034
61.09,-0.045
61.1,0.058
61.11,-0.033
61.12,-0.141
61.13,0.099
61.14,0.045
61.15,0.022
61.16,0.151
61.17,0.05
61.18,-0.019
61.19,0.017
61.2,0.032
61.21,-0.036
61.22,0.117
61.23,0.053
61.24,0.045
61.25,0.135
61.26,0.015
61.27,0.076
61.28,0.085
61.29,0.005
61.3,-0.091
61.31,0.084
61.32,0.126
61.33,0.037
61.34,0.111
61.35,0.073
61.36,0
61.37,0.087
61.38,0.074
61.39,0.074
61.4,0.193
61.41,0.047
61.42,-0.01
61.43,0.086
61.44,-0.002
61.45,-0.039
61.46,0.093
61.47,0.059
61.48,0.098
61.49,0.09
61.5,0.079
61.51,0.057
61.52,0.157
61.53,0.079
61.54,0.003
61.55,0.12
61.56,0.128
61.57,0.062
61.58,0.209
61.59,0.061
61.6,0.067
61.61,0.162
61.62,0.131
61.63,0.129
61.64,0.251
61.65,0.19
61.66,0.165
61.67,0.263
61.68,0.338
61.69,0.177
61.7,0.31
61.71,0.238
61.72,0.212
61.73,0.272
61.74,0.333
61.75,0.218
61.76,0.42
61.77,0.421
61.78,0.357
61.79,0.357
61.8,0.377
61.81,0.219
61.82,0.505
61.83,0.383
61.84,0.419
61.85,0.388
61.86,0.399
61.87,0.339
61.88,0.488
61.89,0.405
61.9,0.339
61.91,0.5
61.92,0.517
61.93,0.482
61.94,0.53
61.95,0.556
61.96,0.377
61.97,0.668
61.98,0.411
61.99,0.482
62,0.602
62.01,0.602
62.02,0.546
62.03,0.734
62.04,0.607
62.05,0.61
62.06,0.813
62.07,0.789
62.08,0.882
62.09,1.088
62.1,1.004
62.11,1.093
62.12,1.283
62.13,1.34
62.14,1.318
62.15,1.544
62.16,1.494
62.17,1.648
62.18,1.75
62.19,1.851
62.2,1.96
62.21,2.195
62.22,2.225
62.23,2.36
62.24,2.572
62.25,2.672
62.26,2.776
62.27,3.029
62.28,3.157
62.29,3.2
62.3,3.529
62.31,3.666
62.32,3.788
62.33,4.075
62.34,4.361
62.35,4.341
62.36,4.634
62.37,4.842
62.38,4.935
62.39,5.292
62.4,5.453
62.41,5.57
62.42,5.875
62.43,6.059
62.44,6.252
62.45,6.521
62.46,6.636
62.47,6.75
62.48,7.182
62.49,7.306
62.5,7.44
62.51,7.759
62.52,7.743
62.53,7.858
62.54,7.973
62.55,8.032
62.56,8.142
62.57,8.268
62.58,8.347
62.59,8.417
62.6,8.687
62.61,8.758
62.62,8.783
62.63,8.921
62.64,8.889
62.65,8.89
62.66,8.925
62.67,8.845
62.68,8.736
62.69,8.751
62.7,8.775
62.71,8.545
62.72,8.747
62.73,8.589
62.74,8.308
62.75,8.382
62.76,8.198
62.77,7.907
62.78,7.964
62.79,7.536
62.8,7.535
62.81,7.426
62.82,7.312
62.83,7.086
62.84,6.876
62.85,6.7
62.86,6.477
62.87,6.385
62.88,6.213
62.89,5.98
62.9,5.774
62.91,5.486
62.92,5.132
62.93,5.163
62.94,4.9
62.95,4.563
62.96,4.553
62.97,4.351
62.98,4.107
62.99,4.033
63,3.838
63.01,3.605
63.02,3.459
63.03,3.229
63.04,2.972
63.05,2.926
63.06,2.692
63.07,2.504
63.08,2.442
63.09,2.308
63.1,2.099
63.11,2.031
63.12,1.814
63.13,1.649
63.14,1.624
63.15,1.566
63.16,1.314
63.17,1.487
63.18,1.29
63.19,1.122
63.2,1.151
63.21,0.979
63.22,0.879
63.23,1.05
63.24,0.903
63.25,0.74
63.26,0.835
63.27,0.595
63.28,0.542
63.29,0.648
63.3,0.609
63.31,0.513
63.32,0.561
63.33,0.458
63.34,0.347
63.35,0.557
63.36,0.438
63.37,0.545
63.38,0.529
63.39,0.523
63.4,0.392
63.41,0.461
63.42,0.462
63.43,0.359
63.44,0.395
63.45,0.276
63.46,0.327
63.47,0.373
63.48,0.426
63.49,0.257
63.5,0.34
63.51,0.388
63.52,0.173
63.53,0.31
63.54,0.315
63.55,0.238
63.56,0.308
63.57,0.255
63.58,0.175
63.59,0.198
63.6,0.283
63.61,0.154
63.62,0.294
63.63,0.224
63.64,0.211
63.65,0.232
63.66,0.098
63.67,0.08
63.68,0.23
63.69,0.198
63.7,0.199
63.71,0.273
63.72,0.185
63.73,0.114
63.74,0.258
63.75,0.058
63.76,0.095
63.77,0.174
63.78,0.111
63.79,0.016
63.8,0.128
63.81,0.128
63.82,0.016
63.83,0.211
63.84,0.105
63.85,0.058
63.86,0.074
63.87,0.078
63.88,0.008
63.89,0.095
63.9,0.076
63.91,0.04
63.92,0.241
63.93,0.078
63.94,0.078
63.95,0.096
63.96,0.056
63.97,0.012
63.98,0.172
63.99,0.125
64,-0.031
64.01,0.105
64.02,0.073
64.03,-0.028
64.04,0.107
64.05,0.195
64.06,0.015
64.07,0.191
64.08,0.055
64.09,0.064
64.1,0.108
64.11,0.114
64.12,-0.045
64.13,0.15
64.14,0.036
64.15,-0.038
64.16,-0.005
64.17,-0.075
64.18,-0.097
64.19,0.015
64.2,0.05
64.21,0.001
64.22,0.05
64.23,0.106
64.24,-0.014
64.25,0.208
64.26,0.048
64.27,-0.12
64.28,0.056
64.29,0.018
64.3,0.031
64.31,0.079
64.32,0.014
64.33,-0.091
64.34,0.1
64.35,0.003
64.36,0.027
64.37,0.076
64.38,0.04
64.39,-0.005
64.4,0.145
64.41,0.047
64.42,-0.078
64.43,0.081
64.44,-0.061
64.45,-0.147
64.46,0.06
64.47,0.096
64.48,-0.061
64.49,0.085
64.5,0.012
64.51,-0.004
64.52,0.049
64.53,0.069
64.54,-0.025
64.55,0.145
64.56,0.063
64.57,-0.047
64.58,-0.022
64.59,-0.048
64.6,-0.053
64.61,-0.005
64.62,0.069
64.63,-0.148
64.64,0.09
64.65,0.096
64.66,-0.038
64.67,0.022
64.68,0.051
64.69,-0.022
64.7,0.094
64.71,0.045
64.72,-0.071
64.73,0.097
64.74,0.076
64.75,0.035
64.76,0.07
64.77,0.019
64.78,-0.09
64.79,0.053
64.8,0.037
64.81,0.029
64.82,0.09
64.83,-0.057
64.84,-0.108
64.85,-0.067
64.86,-0.05
64.87,-0.038
64.88,-0.033
64.89,0.031
64.9,-0.072
64.91,-0.033
64.92,0.01
64.93,-0.016
64.94,0.138
64.95,0.009
64.96,-0.008
64.97,0.006
64.98,0.004
64.99,-0.135
65,-0.001
65.01,0.008
65.02,-0.024
65.03,0.088
65.04,-0.039
65.05,-0.073
65.06,-0.042
65.07,-0.014
65.08,-0.172
65.09,0.145
65.1,0.074
65.11,-0.07
65.12,0.045
65.13,-0.038
65.14,-0.064
65.15,0.078
65.16,0.039
65.17,-0.035
65.18,0.094
65.19,0.03
65.2,-0.041
65.21,0.039
65.22,0.002
65.23,-0.099
65.24,0.038
65.25,0.009
65.26,0.039
65.27,0.089
65.28,0.097
65.29,-0.077
65.3,0.037
65.31,-0.006
65.32,-0.061
65.33,0.019
65.34,-0.015
65.35,0.015
65.36,0.119
65.37,-0.124
65.38,-0.035
65.39,-0.012
65.4,0.076
65.41,0.037
65.42,0.152
65.43,-0.007
65.44,0.015
65.45,0.172
65.46,0.049
65.47,0.056
65.48,0.103
65.49,0.004
65.5,-0.072
65.51,0.081
65.52,0.072
65.53,-0.005
65.54,0.246
65.55,0.106
65.56,0.042
65.57,0.194
65.58,0.08
65.59,0.095
65.6,0.159
65.61,0.121
65.62,0.043
65.63,0.143
65.64,0.175
65.65,0.04
65.66,0.287
65.67,0.159
65.68,0.016
65.69,0.228
65.7,0.12
65.71,0.102
65.72,0.19
65.73,0.191
65.74,0.13
65.75,0.203
65.76,0.152
65.77,0.093
65.78,0.309
65.79,0.164
65.8,0.087
65.81,0.163
65.82,0.111
65.83,0.01
65.84,0.171
65.85,0.207
65.86,0.077
65.87,0.265
65.88,0.189
65.89,0.006
65.9,0.244
65.91,0.122
65.92,0.048
65.93,0.278
65.94,0.198
65.95,0.157
65.96,0.176
65.97,0.077
65.98,0.064
65.99,0.198
66,0.18
66.01,0.113
66.02,0.298
66.03,0.209
66.04,0.209
66.05,0.241
66.06,0.164
66.07,0.139
66.08,0.15
66.09,0.111
66.1,0.055
66.11,0.171
66.12,0.042
66.13,-0.02
66.14,0.185
66.15,0.091
66.16,0
66.17,0.105
66.18,0.116
66.19,0.032
66.2,0.209
66.21,0.169
66.22,0.09
66.23,0.167
66.24,0.172
66.25,-0.006
66.26,0.08
66.27,-0.026
66.28,0.033
66.29,0.125
66.3,0.052
66.31,0.016
66.32,0.111
66.33,0.104
66.34,-0.039
66.35,0.084
66.36,0.078
66.37,-0.026
66.38,0.17
66.39,0.155
66.4,0.025
66.41,0.171
66.42,0.168
66.43,0.018
66.44,0.098
66.45,-0.034
66.46,-0.129
66.47,0.033
66.48,0.083
66.49,0.05
66.5,0.202
66.51,0.132
66.52,0
66.53,0.148
66.54,0.076
66.55,-0.055
66.56,0.168
66.57,0.037
66.58,0.094
66.59,0.174
66.6,0.054
66.61,0.046
66.62,0.061
66.63,0.005
66.64,-0.131
66.65,0.06
66.66,0.015
66.67,0.016
66.68,0.117
66.69,0.052
66.7,0.029
66.71,0.131
66.72,0.016
66.73,-0.026
66.74,0.115
66.75,0.07
66.76,-0.136
66.77,0.156
66.78,0.073
66.79,-0.011
66.8,0.087
66.81,-0.006
66.82,0.029
66.83,0.086
66.84,0.012
66.85,-0.033
66.86,0.099
66.87,0.002
66.88,-0.053
66.89,0.023
66.9,0.04
66.91,-0.095
66.92,0.088
66.93,0.01
66.94,-0.013
66.95,0.075
66.96,0.125
66.97,-0.08
66.98,0.042
66.99,-0.02
67,-0.011
67.01,0.086
67.02,0.027
67.03,-0.095
67.04,0.019
67.05,-0.028
67.06,0
67.07,-0.01
67.08,-0.005
67.09,-0.113
67.1,0.051
67.11,-0.027
67.12,-0.033
67.13,0.052
67.14,0.032
67.15,-0.079
67.16,0.14
67.17,0.077
67.18,0.053
67.19,0.146
67.2,0.036
67.21,-0.046
67.22,0.064
67.23,-0.028
67.24,-0.064
67.25,0.089
67.26,0.027
67.27,-0.034
67.28,0.102
67.29,0.048
67.3,-0.044
67.31,0.07
67.32,0.055
67.33,-0.094
67.34,0.129
67.35,0.073
67.36,-0.064
67.37,0.101
67.38,0.031
67.39,-0.042
67.4,0.094
67.41,0.021
67.42,-0.157
67.43,-0.021
67.44,-0.035
67.45,-0.068
67.46,0.013
67.47,0.016
67.48,-0.084
67.49,0.126
67.5,0.028
67.51,0.012
67.52,0.109
67.53,0.066
67.54,-0.05
67.55,0.089
67.56,0.022
67.57,-0.011
67.58,0.038
67.59,0.031
67.6,0.024
67.61,0.034
67.62,0.019
67.63,0.027
67.64,0.067
67.65,-0.055
67.66,-0.176
67.67,0.055
67.68,-0.046
67.69,-0.091
67.7,0.102
67.71,-0.015
67.72,-0.058
67.73,0.073
67.74,-0.006
67.75,-0.069
67.76,0.032
67.77,0.095
67.78,-0.002
67.79,0.1
67.8,0.047
67.81,-0.138
67.82,0.068
67.83,0.005
67.84,-0.131
67.85,0.039
67.86,0.056
67.87,-0.037
67.88,0.099
67.89,0.011
67.9,0.001
67.91,0.084
67.92,0.004
67.93,-0.043
67.94,0.115
67.95,0.031
67.96,-0.018
67.97,0.006
67.98,0.02
67.99,-0.032
68,0.098
68.01,0.025
68.02,-0.048
68.03,0.099
68.04,0.083
68.05,-0.059
68.06,0.09
68.07,-0.01
68.08,-0.074
68.09,0.066
68.1,0.044
68.11,-0.089
68.12,0.042
68.13,-0.019
68.14,-0.114
68.15,0.058
68.16,0.02
68.17,-0.074
68.18,0.082
68.19,0.021
68.2,-0.056
68.21,0.069
68.22,0.071
68.23,-0.01
68.24,0.115
68.25,0.009
68.26,0.015
68.27,0.087
68.28,-0.049
68.29,-0.108
68.3,-0.005
68.31,-0.021
68.32,-0.042
68.33,0.089
68.34,0.048
68.35,0.12
68.36,0.148
68.37,0.026
68.38,-0.025
68.39,-0.05
68.4,-0.001
68.41,0.036
68.42,0.094
68.43,0.036
68.44,-0.062
68.45,0.117
68.46,0.003
68.47,-0.048
68.48,0.104
68.49,0.092
68.5,-0.102
68.51,0.047
68.52,-0.022
68.53,-0.045
68.54,0.028
68.55,0.046
68.56,-0.025
68.57,0.035
68.58,0.055
68.59,-0.043
68.6,0.151
68.61,0.082
68.62,0.038
68.63,0.092
68.64,0.022
68.65,-0.084
68.66,0.093
68.67,0.011
68.68,-0.157
68.69,0.121
68.7,0.061
68.71,0.029
68.72,0.103
68.73,0.093
68.74,0.016
68.75,0.062
68.76,0.095
68.77,-0.077
68.78,0.107
68.79,0.072
68.8,0.047
68.81,0.088
68.82,-0.001
68.83,-0.092
68.84,0.13
68.85,0.033
68.86,0.02
68.87,0.072
68.88,-0.033
68.89,-0.04
68.9,0.006
68.91,0.022
68.92,-0.048
68.93,0.099
68.94,-0.03
68.95,-0.092
68.96,0.071
68.97,0.023
68.98,-0.018
68.99,0.05
69,-0.019
69.01,0.012
69.02,0.133
69.03,0.033
69.04,-0.045
69.05,0.022
69.06,0.048
69.07,0.091
69.08,0.107
69.09,0.041
69.1,-0.049
69.11,0.084
69.12,0.052
69.13,0.013
69.14,0.068
69.15,-0.001
69.16,-0.05
69.17,0.139
69.18,0.077
69.19,-0.038
69.2,0.084
69.21,0.098
69.22,0.083
69.23,0.096
69.24,0.106
69.25,0.02
69.26,0.128
69.27,-0.02
69.28,-0.003
69.29,0.092
69.3,0.043
69.31,-0.062
69.32,0.074
69.33,0.024
69.34,-0.085
69.35,0.114
69.36,0.008
69.37,-0.041
69.38,0.068
69.39,-0.003
69.4,-0.092
69.41,0.052
69.42,0.052
69.43,-0.039
69.44,0.137
69.45,0.099
69.46,-0.005
69.47,0.129
69.48,0.05
69.49,-0.057
69.5,0.092
69.51,0.053
69.52,-0.042
69.53,0.114
69.54,0.052
69.55,0.072
69.56,0.223
69.57,0.119
69.58,0.005
69.59,0.087
69.6,0.108
69.61,0.018
69.62,0.145
69.63,0.1
69.64,0.049
69.65,0.185
69.66,0.138
69.67,-0.04
69.68,0.134
69.69,0.148
69.7,0.077
69.71,0.084
69.72,0.085
69.73,-0.017
69.74,0.173
69.75,0.055
69.76,0.037
69.77,0.218
69.78,0.163
69.79,0.071
69.8,0.106
69.81,0.085
69.82,0.009
69.83,0.154
69.84,0.143
69.85,0.109
69.86,0.126
69.87,0.081
69.88,-0.001
69.89,0.19
69.9,0.196
69.91,0.026
69.92,0.181
69.93,0.129
69.94,0.079
69.95,0.153
69.96,0.206
69.97,0.024
69.98,0.199
69.99,0.136
70,0.171
70.01,0.186
70.02,0.259
70.03,0.035
70.04,0.135
70.05,0.128
70.06,-0.001
70.07,0.092
70.08,0.139
70.09,0.074
70.1,0.183
70.11,0.182
70.12,0.064
70.13,0.324
70.14,0.177
70.15,0.192
70.16,0.175
70.17,0.161
70.18,0.088
70.19,0.276
70.2,0.152
70.21,0.191
70.22,0.25
70.23,0.15
70.24,0.278
70.25,0.279
70.26,0.211
70.27,0.094
70.28,0.237
70.29,0.187
70.3,0.154
70.31,0.3
70.32,0.259
70.33,0.112
70.34,0.298
70.35,0.205
70.36,0.214
70.37,0.284
70.38,0.204
70.39,0.127
70.4,0.224
70.41,0.164
70.42,0.14
70.43,0.305
70.44,0.316
70.45,0.247
70.46,0.271
70.47,0.214
70.48,0.127
70.49,0.332
70.5,0.217
70.51,0.232
70.52,0.289
70.53,0.218
70.54,0.204
70.55,0.319
70.56,0.413
70.57,0.325
70.58,0.449
70.59,0.476
70.6,0.27
70.61,0.468
70.62,0.459
70.63,0.397
70.64,0.544
70.65,0.527
70.66,0.441
70.67,0.5
70.68,0.495
70.69,0.432
70.7,0.54
70.71,0.542
70.72,0.415
70.73,0.608
70.74,0.465
70.75,0.434
70.76,0.64
70.77,0.622
70.78,0.503
70.79,0.632
70.8,0.596
70.81,0.481
70.82,0.655
70.83,0.666
70.84,0.593
70.85,0.82
70.86,0.75
70.87,0.688
70.88,0.779
70.89,0.791
70.9,0.681
70.91,0.88
70.92,0.77
70.93,0.685
70.94,0.855
70.95,0.849
70.96,0.738
70.97,0.914
70.98,0.923
70.99,0.792
71,0.912
71.01,0.808
71.02,0.777
71.03,0.969
71.04,0.904
71.05,0.839
71.06,0.98
71.07,0.945
71.08,0.849
71.09,0.959
71.1,0.943
71.11,0.833
71.12,0.971
71.13,0.86
71.14,0.788
71.15,0.889
71.16,0.858
71.17,0.802
71.18,0.914
71.19,0.833
71.2,0.812
71.21,0.863
71.22,0.814
71.23,0.719
71.24,0.89
71.25,0.817
71.26,0.701
71.27,0.873
71.28,0.738
71.29,0.675
71.3,0.733
71.31,0.756
71.32,0.658
71.33,0.747
71.34,0.691
71.35,0.668
71.36,0.731
71.37,0.738
71.38,0.612
71.39,0.641
71.4,0.664
71.41,0.539
71.42,0.606
71.43,0.594
71.44,0.484
71.45,0.576
71.46,0.554
71.47,0.54
71.48,0.663
71.49,0.604
71.5,0.554
71.51,0.619
71.52,0.476
71.53,0.486
71.54,0.623
71.55,0.49
71.56,0.465
71.57,0.511
71.58,0.403
71.59,0.331
71.6,0.386
71.61,0.455
71.62,0.288
71.63,0.563
71.64,0.525
71.65,0.46
71.66,0.601
71.67,0.493
71.68,0.454
71.69,0.554
71.7,0.516
71.71,0.37
71.72,0.518
71.73,0.366
71.74,0.391
71.75,0.441
71.76,0.493
71.77,0.262
71.78,0.531
71.79,0.491
71.8,0.326
71.81,0.454
71.82,0.462
71.83,0.41
71.84,0.505
71.85,0.507
71.86,0.415
71.87,0.564
71.88,0.488
71.89,0.382
71.9,0.563
71.91,0.471
71.92,0.467
71.93,0.511
71.94,0.545
71.95,0.462
71.96,0.578
71.97,0.442
71.98,0.366
71.99,0.56
72,0.528
72.01,0.382
72.02,0.562
72.03,0.427
72.04,0.445
72.05,0.618
72.06,0.51
72.07,0.532
72.08,0.572
72.09,0.529
72.1,0.422
72.11,0.626
72.12,0.45
72.13,0.524
72.14,0.636
72.15,0.5
72.16,0.394
72.17,0.547
72.18,0.512
72.19,0.474
72.2,0.614
72.21,0.465
72.22,0.461
72.23,0.509
72.24,0.51
72.25,0.41
72.26,0.555
72.27,0.59
72.28,0.429
72.29,0.535
72.3,0.524
72.31,0.509
72.32,0.635
72.33,0.606
72.34,0.48
72.35,0.658
72.36,0.629
72.37,0.47
72.38,0.643
72.39,0.471
72.4,0.448
72.41,0.596
72.42,0.545
72.43,0.469
72.44,0.614
72.45,0.565
72.46,0.489
72.47,0.642
72.48,0.655
72.49,0.466
72.5,0.593
72.51,0.55
72.52,0.471
72.53,0.667
72.54,0.634
72.55,0.528
72.56,0.578
72.57,0.612
72.58,0.428
72.59,0.632
72.6,0.607
72.61,0.565
72.62,0.663
72.63,0.587
72.64,0.464
72.65,0.71
72.66,0.648
72.67,0.603
72.68,0.709
72.69,0.723
72.7,0.534
72.71,0.7
72.72,0.606
72.73,0.501
72.74,0.743
72.75,0.722
72.76,0.613
72.77,0.787
72.78,0.737
72.79,0.616
72.8,0.704
72.81,0.655
72.82,0.603
72.83,0.785
72.84,0.831
72.85,0.69
72.86,0.821
72.87,0.699
72.88,0.635
72.89,0.806
72.9,0.834
72.91,0.74
72.92,0.816
72.93,0.792
72.94,0.677
72.95,0.856
72.96,0.918
72.97,0.779
72.98,0.826
72.99,0.777
73,0.735
73.01,0.773
73.02,0.803
73.03,0.674
73.04,0.873
73.05,0.686
73.06,0.698
73.07,0.888
73.08,0.871
73.09,0.84
73.1,0.877
73.11,0.897
73.12,0.815
73.13,0.916
73.14,0.836
73.15,0.741
73.16,0.778
73.17,0.823
73.18,0.695
73.19,0.906
73.2,0.895
73.21,0.784
73.22,0.909
73.23,0.93
73.24,0.791
73.25,0.888
73.26,0.88
73.27,0.834
73.28,0.874
73.29,0.878
73.3,0.83
73.31,0.932
73.32,0.915
73.33,0.872
73.34,0.995
73.35,0.951
73.36,0.872
73.37,0.967
73.38,0.98
73.39,0.946
73.4,0.987
73.41,0.957
73.42,0.909
73.43,1.088
73.44,1.084
73.45,1.062
73.46,1.047
73.47,1.027
73.48,0.898
73.49,1.121
73.5,1.076
73.51,1.073
73.52,1.15
73.53,1.101
73.54,1.086
73.55,1.168
73.56,1.228
73.57,1.193
73.58,1.359
73.59,1.197
73.6,1.194
73.61,1.292
73.62,1.346
73.63,1.386
73.64,1.438
73.65,1.383
73.66,1.345
73.67,1.467
73.68,1.524
73.69,1.36
73.7,1.645
73.71,1.679
73.72,1.474
73.73,1.709
73.74,1.691
73.75,1.563
73.76,1.81
73.77,1.776
73.78,1.776
73.79,1.922
73.8,1.927
73.81,1.784
73.82,1.98
73.83,1.971
73.84,2.038
73.85,2.21
73.86,2.111
73.87,1.945
73.88,2.174
73.89,2.18
73.9,2.148
73.91,2.402
73.92,2.36
73.93,2.265
73.94,2.495
73.95,2.432
73.96,2.327
73.97,2.456
73.98,2.434
73.99,2.417
74,2.603
74.01,2.556
74.02,2.617
74.03,2.64
74.04,2.546
74.05,2.492
74.06,2.644
74.07,2.577
74.08,2.475
74.09,2.773
74.1,2.652
74.11,2.651
74.12,2.725
74.13,2.663
74.14,2.559
74.15,2.664
74.16,2.65
74.17,2.524
74.18,2.685
74.19,2.577
74.2,2.494
74.21,2.649
74.22,2.576
74.23,2.499
74.24,2.68
74.25,2.43
74.26,2.393
74.27,2.507
74.28,2.524
74.29,2.373
74.3,2.606
74.31,2.408
74.32,2.352
74.33,2.487
74.34,2.33
74.35,2.224
74.36,2.395
74.37,2.285
74.38,2.148
74.39,2.279
74.4,2.233
74.41,2.019
74.42,2.286
74.43,2.106
74.44,2.097
74.45,2.176
74.46,2.129
74.47,1.997
74.48,2.145
74.49,2.045
74.5,2
74.51,2.055
74.52,1.925
74.53,1.87
74.54,1.902
74.55,1.906
74.56,1.831
74.57,2.026
74.58,1.859
74.59,1.811
74.6,1.873
74.61,1.816
74.62,1.803
74.63,1.878
74.64,1.797
74.65,1.751
74.66,1.847
74.67,1.867
74.68,1.776
74.69,1.917
74.7,1.802
74.71,1.701
74.72,1.931
74.73,1.718
74.74,1.644
74.75,1.924
74.76,1.927
74.77,1.717
74.78,1.939
74.79,1.838
74.8,1.68
74.81,1.889
74.82,1.907
74.83,1.824
74.84,1.963
74.85,1.965
74.86,1.826
74.87,2.064
74.88,1.909
74.89,1.811
74.9,2.064
74.91,2.038
74.92,1.909
74.93,2.097
74.94,2.038
74.95,1.958
74.96,2.081
74.97,2.082
74.98,2.004
74.99,2.154
75,1.818
75.01,1.61
75.02,1.546
75.03,1.511
75.04,1.402
75.05,1.214
75.06,1.269
75.07,1.153
75.08,0.99
75.09,1.088
75.1,1.019
75.11,0.929
75.12,0.757
75.13,0.811
75.14,0.712
75.15,0.831
75.16,0.733
75.17,0.522
75.18,0.646
75.19,0.519
75.2,0.395
75.21,0.362
75.22,0.252
75.23,0.191
75.24,0.294
75.25,0.127
75.26,0.155
75.27,-0.022
75.28,-0.106
75.29,-0.249
75.3,0
