24.99,0
25.005,0.069
25.02,0.174
25.035,0.165
25.05,0.242
25.065,0.295
25.08,0.137
25.095,0.119
25.11,0.236
25.125,0.182
25.14,0.059
25.155,0.039
25.17,0.152
25.185,0.232
25.2,0.264
25.215,0.221
25.23,0.189
25.245,0.151
25.26,0.18
25.275,0.151
25.29,0.15
25.305,0.157
25.32,0.172
25.335,0.113
25.35,0.083
25.365,0.117
25.38,0.136
25.395,0.113
25.41,0.126
25.425,0.188
25.44,0.208
25.455,0.16
25.47,0.161
25.485,0.148
25.5,0.14
25.515,0.135
25.53,0.121
25.545,0.147
25.56,0.141
25.575,0.076
25.59,0.109
25.605,0.166
25.62,0.154
25.635,0.142
25.65,0.128
25.665,0.124
25.68,0.099
25.695,0.088
25.71,0.112
25.725,0.128
25.74,0.096
25.755,0.062
25.77,0.081
25.785,0.081
25.8,0.11
25.815,0.163
25.83,0.109
25.845,0.077
25.86,0.096
25.875,0.087
25.89,0.107
25.905,0.099
25.92,0.111
25.935,0.096
25.95,0.082
25.965,0.057
25.98,0.076
25.995,0.106
26.01,0.047
26.025,0.028
26.04,0.056
26.055,0.058
26.07,0.093
26.085,0.128
26.1,0.099
26.115,0.09
26.13,0.064
26.145,0.061
26.16,0.078
26.175,0.066
26.19,0.084
26.205,0.088
26.22,0.076
26.235,0.068
26.25,0.051
26.265,0.053
26.28,0.07
26.295,0.087
26.31,0.045
26.325,0.049
26.34,0.057
26.355,0.062
26.37,0.05
26.385,0.043
26.4,0.036
26.415,0.044
26.43,0.031
26.445,0.014
26.46,0.041
26.475,0.021
26.49,0.025
26.505,0.034
26.52,0.029
26.535,0.031
26.55,0.029
26.565,-0.005
26.58,0.016
26.595,0.03
26.61,0.002
26.625,-0.005
26.64,0.033
26.655,0.049
26.67,0.013
26.685,0.005
26.7,-0.008
26.715,0.022
26.73,0.036
26.745,0.038
26.76,0.014
26.775,-0.028
26.79,-0.024
26.805,0.003
26.82,0.021
26.835,0.023
26.85,0.027
26.865,0.012
26.88,0.012
26.895,0.029
26.91,0.02
26.925,-0.017
26.94,0.005
26.955,0.016
26.97,0.017
26.985,0.069
27,0.082
27.015,0.06
27.03,0.037
27.045,0.05
27.06,0.069
27.075,0.067
27.09,0.026
27.105,-0.01
27.12,-0.002
27.135,0.009
27.15,0.024
27.165,0.018
27.18,0.023
27.195,-0.001
27.21,0.031
27.225,0.019
27.24,0.03
27.255,0.044
27.27,0.022
27.285,0.002
27.3,0.037
27.315,0.006
27.33,-0.054
27.345,-0.03
27.36,-0.004
27.375,0.009
27.39,0.01
27.405,0.003
27.42,0.019
27.435,-0.034
27.45,-0.037
27.465,-0.013
27.48,-0.009
27.495,-0.009
27.51,-0.006
27.525,-0.01
27.54,-0.023
27.555,-0.025
27.57,0.021
27.585,0.029
27.6,-0.005
27.615,-0.02
27.63,-0.026
27.645,-0.017
27.66,-0.009
27.675,-0.011
27.69,0.003
27.705,0.014
27.72,-0.016
27.735,-0.03
27.75,-0.027
27.765,-0.019
27.78,-0.016
27.795,-0.026
27.81,-0.02
27.825,-0.005
27.84,-0.026
27.855,-0.053
27.87,-0.04
27.885,-0.026
27.9,0.013
27.915,-0.014
27.93,-0.044
27.945,-0.035
27.96,-0.024
27.975,-0.009
27.99,-0.038
28.005,-0.04
28.02,-0.029
28.035,-0.001
28.05,0.001
28.065,-0.035
28.08,-0.038
28.095,-0.008
28.11,-0.031
28.125,-0.036
28.14,-0.034
28.155,-0.046
28.17,-0.04
28.185,-0.038
28.2,-0.017
28.215,-0.02
28.23,-0.009
28.245,0.017
28.26,-0.002
28.275,-0.031
28.29,-0.034
28.305,-0.009
28.32,-0.013
28.335,-0.017
28.35,-0.022
28.365,-0.005
28.38,0.001
28.395,-0.012
28.41,-0.033
28.425,-0.008
28.44,-0.001
28.455,-0.013
28.47,-0.033
28.485,-0.008
28.5,0.019
28.515,-0.009
28.53,-0.03
28.545,-0.02
28.56,0.001
28.575,0.01
28.59,0.028
28.605,0
28.62,0.011
28.635,0.006
28.65,-0.014
28.665,-0.015
28.68,-0.007
28.695,-0.017
28.71,-0.045
28.725,-0.017
28.74,-0.035
28.755,-0.036
28.77,-0.021
28.785,-0.017
28.8,-0.001
28.815,0.002
28.83,-0.009
28.845,0.013
28.86,-0.001
28.875,-0.052
28.89,-0.051
28.905,-0.001
28.92,0.01
28.935,0.009
28.95,0.008
28.965,0.004
28.98,-0.002
28.995,0.015
29.01,0.006
29.025,-0.003
29.04,0.002
29.055,-0.016
29.07,-0.016
29.085,-0.023
29.1,-0.016
29.115,-0.005
29.13,-0.009
29.145,-0.014
29.16,-0.014
29.175,0.002
29.19,-0.004
29.205,-0.008
29.22,-0.018
29.235,-0.028
29.25,-0.011
29.265,0.004
29.28,0.013
29.295,0.042
29.31,0.026
29.325,0.009
29.34,0.003
29.355,0.021
29.37,0.043
29.385,0.035
29.4,0.024
29.415,0.005
29.43,0.042
29.445,0.049
29.46,0.046
29.475,0.096
29.49,0.12
29.505,0.113
29.52,0.142
29.535,0.166
29.55,0.165
29.565,0.163
29.58,0.163
29.595,0.184
29.61,0.213
29.625,0.255
29.64,0.279
29.655,0.333
29.67,0.352
29.685,0.373
29.7,0.422
29.715,0.419
29.73,0.488
29.745,0.555
29.76,0.566
29.775,0.598
29.79,0.617
29.805,0.669
29.82,0.743
29.835,0.771
29.85,0.805
29.865,0.897
29.88,0.926
29.895,0.984
29.91,1.041
29.925,1.073
29.94,1.142
29.955,1.222
29.97,1.245
29.985,1.24
30,1.284
30.015,1.362
30.03,1.387
30.045,1.38
30.06,1.394
30.075,1.401
30.09,1.41
30.105,1.416
30.12,1.438
30.135,1.427
30.15,1.403
30.165,1.393
30.18,1.392
30.195,1.325
30.21,1.295
30.225,1.266
30.24,1.224
30.255,1.213
30.27,1.201
30.285,1.12
30.3,1.077
30.315,1.045
30.33,1.026
30.345,0.961
30.36,0.891
30.375,0.86
30.39,0.807
30.405,0.775
30.42,0.715
30.435,0.67
30.45,0.657
30.465,0.614
30.48,0.551
30.495,0.499
30.51,0.471
30.525,0.439
30.54,0.398
30.555,0.379
30.57,0.344
30.585,0.326
30.6,0.283
30.615,0.248
30.63,0.247
30.645,0.229
30.66,0.177
30.675,0.143
30.69,0.158
30.705,0.106
30.72,0.079
30.735,0.076
30.75,0.072
30.765,0.103
30.78,0.076
30.795,0.049
30.81,0.06
30.825,0.036
30.84,0.029
30.855,0.035
30.87,0.019
30.885,0.021
30.9,0.02
30.915,0.045
30.93,0.015
30.945,-0.002
30.96,-0.01
30.975,-0.005
30.99,-0.004
31.005,0.002
31.02,0.037
31.035,0.035
31.05,-0.018
31.065,-0.048
31.08,0.012
31.095,0.021
31.11,-0.002
31.125,0.014
31.14,-0.01
31.155,0.027
31.17,0.001
31.185,-0.04
31.2,-0.032
31.215,-0.048
31.23,-0.051
31.245,-0.006
31.26,0.002
31.275,-0.021
31.29,-0.017
31.305,-0.001
31.32,-0.033
31.335,-0.026
31.35,-0.039
31.365,-0.03
31.38,0.002
31.395,-0.023
31.41,-0.05
31.425,-0.031
31.44,-0.001
31.455,-0.003
31.47,-0.018
31.485,-0.011
31.5,-0.012
31.515,-0.03
31.53,-0.021
31.545,-0.003
31.56,-0.02
31.575,-0.016
31.59,-0.018
31.605,-0.009
31.62,-0.017
31.635,-0.003
31.65,0.012
31.665,0.009
31.68,-0.015
31.695,-0.013
31.71,0.006
31.725,0.006
31.74,0.006
31.755,-0.007
31.77,-0.004
31.785,-0.002
31.8,0.002
31.815,0.016
31.83,0.006
31.845,-0.004
31.86,0.007
31.875,0.045
31.89,0.059
31.905,0.037
31.92,0.059
31.935,0.077
31.95,0.1
31.965,0.098
31.98,0.103
31.995,0.136
32.01,0.15
32.025,0.136
32.04,0.142
32.055,0.127
32.07,0.125
32.085,0.131
32.1,0.1
32.115,0.043
32.13,0.015
32.145,0.043
32.16,0.038
32.175,0.018
32.19,0.01
32.205,0.024
32.22,0.014
32.235,0.006
32.25,0.006
32.265,0.002
32.28,-0.046
32.295,-0.008
32.31,-0.022
32.325,-0.027
32.34,0.007
32.355,0.007
32.37,-0.009
32.385,-0.008
32.4,-0.025
32.415,-0.012
32.43,0
32.445,0.023
32.46,0.007
32.475,0.009
32.49,0.011
32.505,-0.017
32.52,-0.049
32.535,-0.018
32.55,-0.009
32.565,-0.013
32.58,0.002
32.595,-0.001
32.61,0.012
32.625,0.022
32.64,0.012
32.655,0.01
32.67,0.01
32.685,-0.018
32.7,-0.01
32.715,-0.024
32.73,-0.016
32.745,0.002
32.76,0.002
32.775,-0.012
32.79,-0.03
32.805,-0.031
32.82,-0.03
32.835,-0.001
32.85,-0.006
32.865,-0.011
32.88,0.006
32.895,-0.016
32.91,-0.037
32.925,-0.03
32.94,-0.006
32.955,-0.006
32.97,-0.031
32.985,-0.04
33,-0.026
33.015,-0.02
33.03,-0.025
33.045,-0.034
33.06,0.003
33.075,-0.002
33.09,0.009
33.105,0.024
33.12,0.044
33.135,0.039
33.15,0.063
33.165,0.09
33.18,0.078
33.195,0.065
33.21,0.062
33.225,0.081
33.24,0.117
33.255,0.12
33.27,0.1
33.285,0.073
33.3,0.095
33.315,0.114
33.33,0.103
33.345,0.062
33.36,0.04
33.375,0.035
33.39,0.025
33.405,-0.017
33.42,-0.026
33.435,-0.001
33.45,-0.013
33.465,-0.028
33.48,-0.024
33.495,-0.025
33.51,0.008
33.525,0.028
33.54,0.031
33.555,0.007
33.57,0
33.585,0.028
33.6,0
33.615,0.006
33.63,0.021
33.645,0.016
33.66,0.003
33.675,-0.001
33.69,-0.019
33.705,-0.012
33.72,0.01
33.735,-0.005
33.75,-0.017
33.765,-0.002
33.78,0.017
33.795,0.003
33.81,-0.006
33.825,-0.009
33.84,-0.001
33.855,-0.015
33.87,0.015
33.885,0.037
33.9,0.018
33.915,-0.002
33.93,0.012
33.945,0.045
33.96,0.06
33.975,0.052
33.99,0.053
34.005,0.046
34.02,0.035
34.035,0.048
34.05,0.062
34.065,0.061
34.08,0.036
34.095,0.034
34.11,0.046
34.125,0.052
34.14,0.045
34.155,0.033
34.17,0.038
34.185,0.056
34.2,0.044
34.215,0.039
34.23,0.06
34.245,0.1
34.26,0.099
34.275,0.092
34.29,0.071
34.305,0.07
34.32,0.049
34.335,0.097
34.35,0.137
34.365,0.115
34.38,0.107
34.395,0.117
34.41,0.114
34.425,0.113
34.44,0.149
34.455,0.171
34.47,0.16
34.485,0.148
34.5,0.156
34.515,0.16
34.53,0.156
34.545,0.176
34.56,0.186
34.575,0.216
34.59,0.2
34.605,0.184
34.62,0.178
34.635,0.17
34.65,0.198
34.665,0.223
34.68,0.211
34.695,0.255
34.71,0.257
34.725,0.275
34.74,0.265
34.755,0.278
34.77,0.316
34.785,0.312
34.8,0.321
34.815,0.343
34.83,0.404
34.845,0.454
34.86,0.495
34.875,0.507
34.89,0.562
34.905,0.605
34.92,0.688
34.935,0.749
34.95,0.794
34.965,0.879
34.98,0.976
34.995,1.005
35.01,1.075
35.025,1.146
35.04,1.246
35.055,1.363
35.07,1.468
35.085,1.587
35.1,1.695
35.115,1.801
35.13,1.934
35.145,2.068
35.16,2.186
35.175,2.313
35.19,2.414
35.205,2.562
35.22,2.678
35.235,2.823
35.25,2.943
35.265,3.08
35.28,3.252
35.295,3.341
35.31,3.448
35.325,3.552
35.34,3.647
35.355,3.719
35.37,3.803
35.385,3.906
35.4,4.001
35.415,4.054
35.43,4.073
35.445,4.064
35.46,4.082
35.475,4.114
35.49,4.046
35.505,4.017
35.52,4.009
35.535,3.943
35.55,3.899
35.565,3.807
35.58,3.725
35.595,3.578
35.61,3.47
35.625,3.384
35.64,3.299
35.655,3.16
35.67,3.047
35.685,2.94
35.7,2.822
35.715,2.71
35.73,2.603
35.745,2.427
35.76,2.296
35.775,2.234
35.79,2.111
35.805,2.003
35.82,1.856
35.835,1.752
35.85,1.67
35.865,1.543
35.88,1.452
35.895,1.349
35.91,1.254
35.925,1.162
35.94,1.125
35.955,1.043
35.97,0.951
35.985,0.898
36,0.82
36.015,0.759
36.03,0.692
36.045,0.628
36.06,0.601
36.075,0.554
36.09,0.492
36.105,0.442
36.12,0.42
36.135,0.357
36.15,0.311
36.165,0.325
36.18,0.323
36.195,0.282
36.21,0.243
36.225,0.24
36.24,0.237
36.255,0.258
36.27,0.239
36.285,0.224
36.3,0.192
36.315,0.169
36.33,0.163
36.345,0.168
36.36,0.142
36.375,0.143
36.39,0.164
36.405,0.159
36.42,0.152
36.435,0.165
36.45,0.155
36.465,0.156
36.48,0.148
36.495,0.11
36.51,0.104
36.525,0.095
36.54,0.122
36.555,0.134
36.57,0.131
36.585,0.124
36.6,0.14
36.615,0.13
36.63,0.128
36.645,0.118
36.66,0.124
36.675,0.132
36.69,0.133
36.705,0.159
36.72,0.171
36.735,0.161
36.75,0.16
36.765,0.169
36.78,0.203
36.795,0.209
36.81,0.209
36.825,0.196
36.84,0.187
36.855,0.198
36.87,0.213
36.885,0.204
36.9,0.215
36.915,0.201
36.93,0.211
36.945,0.277
36.96,0.29
36.975,0.285
36.99,0.267
37.005,0.242
37.02,0.244
37.035,0.263
37.05,0.297
37.065,0.264
37.08,0.247
37.095,0.261
37.11,0.263
37.125,0.222
37.14,0.198
37.155,0.213
37.17,0.21
37.185,0.193
37.2,0.204
37.215,0.21
37.23,0.2
37.245,0.208
37.26,0.183
37.275,0.148
37.29,0.131
37.305,0.138
37.32,0.123
37.335,0.1
37.35,0.142
37.365,0.149
37.38,0.099
37.395,0.083
37.41,0.081
37.425,0.061
37.44,0.074
37.455,0.093
37.47,0.09
37.485,0.068
37.5,0.078
37.515,0.084
37.53,0.069
37.545,0.042
37.56,0.04
37.575,0.034
37.59,0.046
37.605,0.02
37.62,0.033
37.635,0.041
37.65,0.003
37.665,-0.01
37.68,-0.007
37.695,0.012
37.71,0.021
37.725,0.02
37.74,0.013
37.755,0.002
37.77,-0.028
37.785,-0.046
37.8,-0.007
37.815,0.017
37.83,0.02
37.845,0.008
37.86,-0.006
37.875,-0.01
37.89,-0.018
37.905,-0.045
37.92,-0.014
37.935,-0.005
37.95,-0.005
37.965,-0.013
37.98,0.002
37.995,-0.021
38.01,-0.025
38.025,-0.024
38.04,-0.018
38.055,-0.003
38.07,-0.013
38.085,-0.035
38.1,-0.024
38.115,-0.022
38.13,-0.005
38.145,-0.006
38.16,-0.017
38.175,0.005
38.19,0
38.205,-0.013
38.22,-0.018
38.235,-0.013
38.25,-0.012
38.265,-0.018
38.28,-0.004
38.295,0.025
38.31,0.012
38.325,0.02
38.34,-0.003
38.355,-0.028
38.37,-0.028
38.385,-0.015
38.4,0
38.415,-0.003
38.43,-0.006
38.445,-0.029
38.46,-0.019
38.475,-0.006
38.49,-0.007
38.505,-0.007
38.52,0.019
38.535,0.034
38.55,0.005
38.565,-0.03
38.58,-0.036
38.595,-0.01
38.61,-0.013
38.625,-0.03
38.64,-0.045
38.655,-0.045
38.67,-0.02
38.685,-0.034
38.7,-0.018
38.715,-0.008
38.73,-0.029
38.745,-0.04
38.76,-0.028
38.775,-0.002
38.79,0.016
38.805,0.035
38.82,0.013
38.835,-0.001
38.85,-0.008
38.865,0.002
38.88,0.005
38.895,0.026
38.91,0.027
38.925,0.004
38.94,0.005
38.955,-0.011
38.97,0.015
38.985,0.019
39,0.003
39.015,0.007
39.03,-0.011
39.045,-0.019
39.06,-0.022
39.075,-0.011
39.09,0
39.105,0.01
39.12,-0.016
39.135,-0.026
39.15,-0.035
39.165,-0.01
39.18,-0.004
39.195,-0.004
39.21,-0.012
39.225,-0.013
39.24,-0.008
39.255,0.003
39.27,0.004
39.285,-0.006
39.3,0.001
39.315,0.008
39.33,0.01
39.345,-0.003
39.36,0.002
39.375,0.022
39.39,0
39.405,-0.015
39.42,-0.013
39.435,0
39.45,-0.014
39.465,-0.003
39.48,-0.001
39.495,0.006
39.51,-0.002
39.525,0.003
39.54,-0.001
39.555,-0.029
39.57,-0.028
39.585,-0.023
39.6,0.012
39.615,0.01
39.63,-0.01
39.645,-0.015
39.66,-0.014
39.675,-0.002
39.69,0.014
39.705,-0.01
39.72,-0.022
39.735,0.005
39.75,-0.009
39.765,-0.031
39.78,-0.014
39.795,-0.028
39.81,-0.028
39.825,-0.007
39.84,0.017
39.855,0.009
39.87,-0.008
39.885,-0.019
39.9,0.01
39.915,0.034
39.93,0.029
39.945,0.02
39.96,-0.019
39.975,-0.044
39.99,-0.002
40.005,0.012
40.02,0.01
40.035,0.001
40.05,-0.001
40.065,-0.001
40.08,-0.025
40.095,-0.013
40.11,-0.01
40.125,-0.01
40.14,-0.005
40.155,0.017
40.17,0.022
40.185,-0.004
40.2,-0.001
40.215,0.002
40.23,0.012
40.245,-0.016
40.26,-0.021
40.275,0.009
40.29,-0.003
40.305,-0.044
40.32,-0.024
40.335,-0.016
40.35,-0.016
40.365,0.007
40.38,0.024
40.395,0.023
40.41,0.005
40.425,-0.005
40.44,-0.006
40.455,-0.02
40.47,-0.015
40.485,-0.014
40.5,0.007
40.515,0.017
40.53,-0.004
40.545,-0.02
40.56,-0.021
40.575,-0.009
40.59,-0.009
40.605,-0.012
40.62,0.009
40.635,0.012
40.65,0.02
40.665,0.016
40.68,0.001
40.695,-0.014
40.71,-0.024
40.725,0
40.74,-0.006
40.755,-0.005
40.77,0.009
40.785,0.003
40.8,0
40.815,0.014
40.83,0.009
40.845,0.015
40.86,0.017
40.875,0
40.89,-0.001
40.905,0.037
40.92,0.024
40.935,0.005
40.95,0.001
40.965,-0.038
40.98,-0.032
40.995,-0.015
41.01,-0.015
41.025,-0.011
41.04,-0.005
41.055,-0.01
41.07,-0.024
41.085,-0.035
41.1,-0.032
41.115,-0.043
41.13,-0.034
41.145,-0.037
41.16,0.008
41.175,0.024
41.19,0.024
41.205,0.008
41.22,-0.009
41.235,-0.004
41.25,-0.01
41.265,-0.014
41.28,0.012
41.295,-0.002
41.31,-0.022
41.325,-0.008
41.34,0.006
41.355,0.013
41.37,-0.011
41.385,0.012
41.4,0.019
41.415,0.015
41.43,0.002
41.445,0.006
41.46,-0.019
41.475,-0.024
41.49,-0.008
41.505,-0.019
41.52,-0.001
41.535,-0.005
41.55,-0.004
41.565,-0.018
41.58,0
41.595,0.002
41.61,-0.021
41.625,-0.043
41.64,-0.033
41.655,-0.02
41.67,-0.01
41.685,-0.028
41.7,-0.03
41.715,-0.037
41.73,-0.005
41.745,-0.01
41.76,-0.022
41.775,-0.023
41.79,-0.002
41.805,0.018
41.82,-0.031
41.835,-0.032
41.85,-0.028
41.865,0.002
41.88,0.022
41.895,0.013
41.91,0.015
41.925,0.031
41.94,0.024
41.955,-0.017
41.97,-0.01
41.985,0.008
42,-0.021
42.015,-0.018
42.03,-0.001
42.045,0.007
42.06,-0.018
42.075,-0.017
42.09,0.022
42.105,0.026
42.12,0.013
42.135,0.014
42.15,-0.003
42.165,-0.008
42.18,0.009
42.195,0.02
42.21,0.026
42.225,0.002
42.24,0.011
42.255,0.004
42.27,-0.01
42.285,0.023
42.3,0.013
42.315,-0.009
42.33,0.019
42.345,0.024
42.36,0.009
42.375,0.019
42.39,0.044
42.405,0.047
42.42,0.048
42.435,0.073
42.45,0.045
42.465,0.04
42.48,0.071
42.495,0.09
42.51,0.108
42.525,0.102
42.54,0.108
42.555,0.083
42.57,0.108
42.585,0.139
42.6,0.128
42.615,0.127
42.63,0.155
42.645,0.17
42.66,0.18
42.675,0.191
42.69,0.194
42.705,0.212
42.72,0.22
42.735,0.254
42.75,0.293
42.765,0.302
42.78,0.293
42.795,0.322
42.81,0.341
42.825,0.347
42.84,0.406
42.855,0.45
42.87,0.478
42.885,0.471
42.9,0.494
42.915,0.517
42.93,0.522
42.945,0.542
42.96,0.581
42.975,0.597
42.99,0.616
43.005,0.652
43.02,0.649
43.035,0.672
43.05,0.69
43.065,0.715
43.08,0.725
43.095,0.709
43.11,0.673
43.125,0.681
43.14,0.703
43.155,0.694
43.17,0.668
43.185,0.66
43.2,0.652
43.215,0.656
43.23,0.634
43.245,0.601
43.26,0.592
43.275,0.585
43.29,0.574
43.305,0.557
43.32,0.523
43.335,0.496
43.35,0.471
43.365,0.44
43.38,0.439
43.395,0.4
43.41,0.373
43.425,0.367
43.44,0.336
43.455,0.305
43.47,0.296
43.485,0.286
43.5,0.278
43.515,0.25
43.53,0.24
43.545,0.232
43.56,0.199
43.575,0.17
43.59,0.155
43.605,0.172
43.62,0.161
43.635,0.14
43.65,0.135
43.665,0.091
43.68,0.065
43.695,0.062
43.71,0.064
43.725,0.066
43.74,0.053
43.755,0.073
43.77,0.069
43.785,0.04
43.8,0.021
43.815,0.035
43.83,0.034
43.845,0.03
43.86,0.046
43.875,0.052
43.89,0.036
43.905,0.044
43.92,0.043
43.935,0.045
43.95,0.063
43.965,0.058
43.98,0.037
43.995,0.02
44.01,0.022
44.025,0.047
44.04,0.035
44.055,0.045
44.07,0.057
44.085,0.044
44.1,0.029
44.115,0.027
44.13,0.022
44.145,0.042
44.16,0.042
44.175,0.045
44.19,0.01
44.205,0.012
44.22,0.015
44.235,0.034
44.25,0.01
44.265,-0.009
44.28,-0.003
44.295,-0.012
44.31,0
44.325,0.027
44.34,0.036
44.355,0.024
44.37,-0.003
44.385,-0.007
44.4,-0.005
44.415,-0.011
44.43,-0.031
44.445,-0.032
44.46,-0.006
44.475,-0.01
44.49,-0.013
44.505,-0.017
44.52,0.002
44.535,0.017
44.55,0.018
44.565,0.002
44.58,0.001
44.595,0.01
44.61,-0.001
44.625,-0.01
44.64,-0.004
44.655,0.004
44.67,-0.016
44.685,-0.038
44.7,-0.038
44.715,-0.014
44.73,-0.009
44.745,-0.011
44.76,-0.028
44.775,-0.041
44.79,0.008
44.805,0.007
44.82,0.001
44.835,0.001
44.85,0.001
44.865,-0.028
44.88,-0.036
44.895,0.002
44.91,0.009
44.925,-0.001
44.94,-0.002
44.955,0.022
44.97,0.023
44.985,0.002
45,-0.004
45.015,-0.026
45.03,-0.009
45.045,0.011
45.06,0.009
45.075,0.015
45.09,0.015
45.105,0.006
45.12,0.003
45.135,-0.013
45.15,-0.029
45.165,-0.019
45.18,-0.038
45.195,-0.033
45.21,-0.041
45.225,-0.027
45.24,0.003
45.255,-0.006
45.27,-0.022
45.285,-0.008
45.3,-0.031
45.315,-0.021
45.33,-0.004
45.345,0.017
45.36,0.004
45.375,-0.013
45.39,-0.008
45.405,0.006
45.42,0.002
45.435,0.002
45.45,0.006
45.465,-0.004
45.48,-0.013
45.495,-0.012
45.51,-0.017
45.525,-0.014
45.54,0.004
45.555,-0.009
45.57,-0.012
45.585,0.001
45.6,-0.017
45.615,-0.029
45.63,-0.022
45.645,-0.021
45.66,-0.008
45.675,-0.01
45.69,-0.006
45.705,-0.014
45.72,-0.005
45.735,0.001
45.75,-0.001
45.765,-0.008
45.78,-0.006
45.795,-0.023
45.81,-0.029
45.825,-0.014
45.84,-0.006
45.855,-0.001
45.87,0.013
45.885,0.011
45.9,-0.018
45.915,-0.011
45.93,0.018
45.945,0.024
45.96,0
45.975,-0.018
45.99,-0.01
46.005,0.008
46.02,0
46.035,0.005
46.05,-0.012
46.065,-0.041
46.08,-0.021
46.095,-0.011
46.11,-0.013
46.125,0.001
46.14,0.006
46.155,-0.004
46.17,0.005
46.185,-0.016
46.2,-0.029
46.215,-0.019
46.23,-0.003
46.245,0.007
46.26,0.004
46.275,-0.003
46.29,-0.003
46.305,-0.018
46.32,-0.01
46.335,-0.006
46.35,-0.004
46.365,-0.005
46.38,-0.031
46.395,-0.035
46.41,-0.008
46.425,-0.024
46.44,-0.017
46.455,-0.005
46.47,-0.005
46.485,0.001
46.5,-0.014
46.515,0
46.53,0.011
46.545,0.025
46.56,0.005
46.575,0.013
46.59,-0.014
46.605,-0.038
46.62,0.002
46.635,0.022
46.65,0.009
46.665,-0.004
46.68,0.019
46.695,0.011
46.71,-0.012
46.725,0.001
46.74,0.027
46.755,0.012
46.77,0.019
46.785,0.023
46.8,0.028
46.815,0.042
46.83,0.032
46.845,0.033
46.86,0.026
46.875,0.013
46.89,0.023
46.905,0.012
46.92,-0.004
46.935,-0.017
46.95,0.008
46.965,0.018
46.98,0.014
46.995,0.015
47.01,0.013
47.025,-0.001
47.04,-0.003
47.055,0.022
47.07,0.028
47.085,0.021
47.1,0.004
47.115,-0.012
47.13,0.007
47.145,0
47.16,0
47.175,0.002
47.19,0.002
47.205,0.002
47.22,0.009
47.235,-0.003
47.25,-0.015
47.265,-0.004
47.28,-0.011
47.295,-0.004
47.31,0.014
47.325,0.015
47.34,-0.02
47.355,-0.022
47.37,0.008
47.385,0.032
47.4,0.033
47.415,-0.006
47.43,-0.03
47.445,0
47.46,0.024
47.475,0.016
47.49,-0.007
47.505,-0.002
47.52,-0.004
47.535,-0.009
47.55,-0.029
47.565,-0.018
47.58,0.014
47.595,0.012
47.61,-0.004
47.625,-0.026
47.64,-0.022
47.655,0.009
47.67,0.026
47.685,0.035
47.7,0.003
47.715,0.013
47.73,0.028
47.745,0.014
47.76,0.001
47.775,-0.015
47.79,-0.04
47.805,-0.021
47.82,-0.014
47.835,-0.009
47.85,0.016
47.865,0.018
47.88,-0.017
47.895,-0.019
47.91,-0.026
47.925,-0.04
47.94,-0.029
47.955,-0.011
47.97,-0.007
47.985,-0.007
48,0.003
48.015,-0.009
48.03,-0.023
48.045,-0.007
48.06,-0.011
48.075,-0.02
48.09,-0.015
48.105,-0.012
48.12,0.002
48.135,0.018
48.15,0.011
48.165,0.005
48.18,0.017
48.195,0.017
48.21,0.019
48.225,0.007
48.24,-0.002
48.255,-0.005
48.27,-0.01
48.285,-0.02
48.3,0.002
48.315,0.006
48.33,-0.007
48.345,-0.02
48.36,-0.006
48.375,-0.011
48.39,-0.027
48.405,-0.017
48.42,-0.008
48.435,-0.004
48.45,-0.04
48.465,-0.035
48.48,-0.006
48.495,-0.01
48.51,0.004
48.525,0.003
48.54,-0.022
48.555,-0.027
48.57,-0.016
48.585,-0.031
48.6,-0.008
48.615,0.008
48.63,-0.006
48.645,-0.011
48.66,-0.033
48.675,-0.007
48.69,0.004
48.705,0.009
48.72,-0.005
48.735,0.006
48.75,0.003
48.765,0.013
48.78,0.007
48.795,0.013
48.81,-0.007
48.825,-0.02
48.84,-0.005
48.855,-0.002
48.87,0.011
48.885,-0.007
48.9,-0.007
48.915,0.019
48.93,0.02
48.945,-0.021
48.96,0
48.975,-0.005
48.99,-0.018
49.005,-0.011
49.02,-0.007
49.035,-0.031
49.05,-0.022
49.065,-0.014
49.08,-0.011
49.095,-0.011
49.11,-0.01
49.125,-0.008
49.14,-0.009
49.155,-0.003
49.17,0.001
49.185,-0.012
49.2,-0.008
49.215,0.012
49.23,0.012
49.245,-0.006
49.26,-0.014
49.275,-0.027
49.29,-0.031
49.305,-0.025
49.32,0.009
49.335,-0.001
49.35,0.002
49.365,0.008
49.38,0.014
49.395,0.014
49.41,0.001
49.425,0.016
49.44,0.035
49.455,0.025
49.47,0.005
49.485,0.009
49.5,0.017
49.515,0.038
49.53,0.055
49.545,0.042
49.56,0.025
49.575,0.014
49.59,0.014
49.605,0.025
49.62,-0.001
49.635,-0.01
49.65,0.007
49.665,0.022
49.68,0.037
49.695,0.027
49.71,0.021
49.725,0.017
49.74,0.012
49.755,-0.012
49.77,-0.006
49.785,0.006
49.8,-0.019
49.815,-0.029
49.83,-0.018
49.845,-0.02
49.86,0.011
49.875,0.009
49.89,0.004
49.905,-0.003
49.92,-0.018
49.935,-0.023
49.95,-0.004
49.965,0.013
49.98,-0.006
49.995,-0.031
50.01,-0.009
50.025,0.005
50.04,0.007
50.055,0
50.07,-0.005
50.085,-0.036
50.1,-0.027
50.115,-0.003
50.13,0.008
50.145,0.027
50.16,0.004
50.175,-0.02
50.19,-0.021
50.205,-0.013
50.22,-0.012
50.235,-0.008
50.25,0.013
50.265,-0.002
50.28,0.004
50.295,-0.006
50.31,0.007
50.325,0
50.34,-0.025
50.355,-0.039
50.37,-0.002
50.385,0.024
50.4,-0.001
50.415,0.009
50.43,0.014
50.445,0.013
50.46,0.021
50.475,0.014
50.49,0.012
50.505,0
50.52,0.003
50.535,0.007
50.55,-0.021
50.565,-0.027
50.58,-0.035
50.595,-0.032
50.61,0.002
50.625,-0.008
50.64,-0.039
50.655,-0.038
50.67,-0.024
50.685,-0.014
50.7,-0.011
50.715,-0.008
50.73,-0.01
50.745,0.001
50.76,-0.007
50.775,0.001
50.79,0.012
50.805,0.014
50.82,-0.009
50.835,-0.026
50.85,-0.006
50.865,0.021
50.88,0.024
50.895,-0.005
50.91,-0.026
50.925,-0.012
50.94,0.008
50.955,0.032
50.97,0.01
50.985,-0.005
51,-0.006
51.015,-0.009
51.03,-0.005
51.045,0.009
51.06,0.012
51.075,0.003
51.09,0.011
51.105,-0.002
51.12,-0.019
51.135,-0.001
51.15,-0.002
51.165,0.004
51.18,-0.013
51.195,-0.001
51.21,0.01
51.225,0.005
51.24,-0.003
51.255,0.006
51.27,0.003
51.285,0.004
51.3,0.012
51.315,0.006
51.33,0.007
51.345,-0.013
51.36,-0.024
51.375,-0.01
51.39,-0.008
51.405,-0.016
51.42,-0.004
51.435,0.005
51.45,-0.002
51.465,-0.028
51.48,-0.038
51.495,-0.009
51.51,-0.012
51.525,-0.024
51.54,-0.008
51.555,-0.013
51.57,-0.009
51.585,-0.009
51.6,-0.012
51.615,-0.017
51.63,-0.034
51.645,-0.007
51.66,-0.019
51.675,-0.01
51.69,0.019
51.705,0.008
51.72,-0.004
51.735,-0.008
51.75,0.016
51.765,0.01
51.78,-0.016
51.795,-0.012
51.81,0.003
51.825,-0.005
51.84,0.015
51.855,-0.019
51.87,-0.038
51.885,-0.011
51.9,-0.005
51.915,-0.009
51.93,0.02
51.945,0.006
51.96,-0.004
51.975,0.003
51.99,-0.015
52.005,-0.029
52.02,-0.018
52.035,-0.006
52.05,0.009
52.065,-0.002
52.08,-0.001
52.095,-0.019
52.11,-0.01
52.125,-0.008
52.14,0.006
52.155,-0.009
52.17,-0.007
52.185,0.025
52.2,0.02
52.215,-0.012
52.23,-0.017
52.245,-0.012
52.26,-0.02
52.275,-0.027
52.29,-0.021
52.305,-0.002
52.32,-0.008
52.335,-0.011
52.35,-0.018
52.365,-0.015
52.38,-0.016
52.395,-0.006
52.41,0.002
52.425,0.006
52.44,0.01
52.455,0.004
52.47,-0.009
52.485,-0.019
52.5,0.006
52.515,0.011
52.53,0.028
52.545,0.017
52.56,-0.01
52.575,-0.011
52.59,-0.022
52.605,-0.022
52.62,0.004
52.635,0.008
52.65,0
52.665,-0.011
52.68,-0.007
52.695,-0.002
52.71,-0.009
52.725,-0.011
52.74,0.009
52.755,0.011
52.77,0.004
52.785,-0.009
52.8,-0.028
52.815,0.003
52.83,0.02
52.845,0.032
52.86,0.01
52.875,-0.004
52.89,-0.001
52.905,-0.007
52.92,0.01
52.935,0.024
52.95,0.026
52.965,0.031
52.98,0.034
52.995,0.027
53.01,0.054
53.025,0.083
53.04,0.06
53.055,0.06
53.07,0.063
53.085,0.077
53.1,0.081
53.115,0.064
53.13,0.076
53.145,0.099
53.16,0.106
53.175,0.116
53.19,0.132
53.205,0.159
53.22,0.152
53.235,0.146
53.25,0.157
53.265,0.159
53.28,0.16
53.295,0.189
53.31,0.201
53.325,0.172
53.34,0.186
53.355,0.201
53.37,0.21
53.385,0.223
53.4,0.222
53.415,0.199
53.43,0.221
53.445,0.23
53.46,0.24
53.475,0.242
53.49,0.238
53.505,0.221
53.52,0.211
53.535,0.227
53.55,0.219
53.565,0.216
53.58,0.224
53.595,0.231
53.61,0.225
53.625,0.222
53.64,0.2
53.655,0.161
53.67,0.163
53.685,0.194
53.7,0.2
53.715,0.188
53.73,0.188
53.745,0.186
53.76,0.153
53.775,0.146
53.79,0.138
53.805,0.128
53.82,0.135
53.835,0.125
53.85,0.137
53.865,0.102
53.88,0.064
53.895,0.083
53.91,0.094
53.925,0.083
53.94,0.082
53.955,0.086
53.97,0.102
53.985,0.104
54,0.09
54.015,0.052
54.03,0.019
54.045,0.019
54.06,0.03
54.075,0.037
54.09,0.025
54.105,0.003
54.12,0.02
54.135,0.046
54.15,0.011
54.165,0.005
54.18,0.019
54.195,0
54.21,-0.002
54.225,0.011
54.24,0.007
54.255,0
54.27,-0.015
54.285,0.007
54.3,-0.004
54.315,-0.014
54.33,-0.02
54.345,-0.03
54.36,0.003
54.375,-0.002
54.39,-0.009
54.405,-0.002
54.42,0.018
54.435,0.014
54.45,0.001
54.465,0.003
54.48,-0.01
54.495,-0.004
54.51,0.006
54.525,0.016
54.54,0.004
54.555,-0.009
54.57,-0.018
54.585,-0.002
54.6,-0.009
54.615,-0.031
54.63,-0.037
54.645,-0.029
54.66,-0.027
54.675,-0.026
54.69,-0.008
54.705,0.018
54.72,0.019
54.735,0.007
54.75,-0.009
54.765,-0.001
54.78,-0.007
54.795,-0.005
54.81,-0.005
54.825,-0.006
54.84,-0.02
54.855,-0.028
54.87,-0.003
54.885,0.003
54.9,-0.003
54.915,-0.005
54.93,-0.019
54.945,-0.021
54.96,-0.008
54.975,-0.004
54.99,0.017
55.005,0
55.02,-0.002
55.035,-0.005
55.05,-0.009
55.065,0.005
55.08,-0.013
55.095,-0.01
55.11,-0.004
55.125,0.017
55.14,0.021
55.155,0.005
55.17,0.018
55.185,0.011
55.2,0.013
55.215,-0.014
55.23,-0.037
55.245,-0.027
55.26,-0.019
55.275,-0.013
55.29,-0.003
55.305,0.012
55.32,-0.001
55.335,-0.019
55.35,0.006
55.365,0.002
55.38,-0.018
55.395,0.004
55.41,-0.006
55.425,-0.014
55.44,-0.022
55.455,-0.01
55.47,-0.024
55.485,-0.024
55.5,-0.002
55.515,0.01
55.53,-0.009
55.545,0
55.56,-0.011
55.575,-0.023
55.59,-0.011
55.605,0
55.62,-0.02
55.635,-0.009
55.65,-0.008
55.665,-0.003
55.68,-0.02
55.695,-0.015
55.71,-0.015
55.725,-0.011
55.74,-0.014
55.755,-0.029
55.77,-0.013
55.785,-0.005
55.8,0
55.815,0.004
55.83,0.002
55.845,0.022
55.86,0
55.875,-0.006
55.89,0.007
55.905,0.02
55.92,0.023
55.935,0.022
55.95,0.012
55.965,0.026
55.98,0.02
55.995,-0.001
56.01,0.022
56.025,0.02
56.04,-0.007
56.055,0.009
56.07,0.027
56.085,0.026
56.1,0.017
56.115,0.017
56.13,0.022
56.145,0.025
56.16,-0.005
56.175,0.01
56.19,0.026
56.205,0.032
56.22,0.024
56.235,0.018
56.25,0.048
56.265,0.049
56.28,0.048
56.295,0.047
56.31,0.049
56.325,0.051
56.34,0.065
56.355,0.064
56.37,0.077
56.385,0.076
56.4,0.114
56.415,0.112
56.43,0.107
56.445,0.14
56.46,0.117
56.475,0.126
56.49,0.149
56.505,0.159
56.52,0.176
56.535,0.184
56.55,0.197
56.565,0.191
56.58,0.203
56.595,0.241
56.61,0.256
56.625,0.278
56.64,0.28
56.655,0.308
56.67,0.339
56.685,0.341
56.7,0.381
56.715,0.398
56.73,0.407
56.745,0.423
56.76,0.44
56.775,0.493
56.79,0.518
56.805,0.516
56.82,0.526
56.835,0.548
56.85,0.588
56.865,0.613
56.88,0.618
56.895,0.638
56.91,0.671
56.925,0.686
56.94,0.696
56.955,0.692
56.97,0.687
56.985,0.688
57,0.718
57.015,0.74
57.03,0.718
57.045,0.734
57.06,0.745
57.075,0.749
57.09,0.716
57.105,0.707
57.12,0.689
57.135,0.672
57.15,0.682
57.165,0.671
57.18,0.648
57.195,0.642
57.21,0.635
57.225,0.624
57.24,0.592
57.255,0.579
57.27,0.568
57.285,0.522
57.3,0.507
57.315,0.487
57.33,0.47
57.345,0.433
57.36,0.426
57.375,0.403
57.39,0.39
57.405,0.357
57.42,0.349
57.435,0.346
57.45,0.322
57.465,0.279
57.48,0.269
57.495,0.27
57.51,0.252
57.525,0.214
57.54,0.212
57.555,0.193
57.57,0.176
57.585,0.162
57.6,0.141
57.615,0.136
57.63,0.129
57.645,0.103
57.66,0.1
57.675,0.089
57.69,0.076
57.705,0.062
57.72,0.07
57.735,0.063
57.75,0.054
57.765,0.052
57.78,0.066
57.795,0.047
57.81,0.03
57.825,0.037
57.84,0.041
57.855,0.031
57.87,0.046
57.885,0.059
57.9,0.034
57.915,0.028
57.93,0.04
57.945,0.024
57.96,0.015
57.975,0.034
57.99,0.04
58.005,0.018
58.02,0.021
58.035,0.044
58.05,0.046
58.065,0.044
58.08,0.021
58.095,0.013
58.11,0.013
58.125,0.022
58.14,0.018
58.155,0.012
58.17,-0.009
58.185,-0.003
58.2,-0.004
58.215,-0.014
58.23,-0.008
58.245,0.003
58.26,-0.003
58.275,-0.014
58.29,-0.012
58.305,0.004
58.32,0.031
58.335,0.028
58.35,0.011
58.365,-0.011
58.38,-0.028
58.395,-0.003
58.41,0.011
58.425,0.016
58.44,0.018
58.455,-0.005
58.47,0.001
58.485,-0.001
58.5,-0.012
58.515,0.006
58.53,0.018
58.545,0.02
58.56,-0.007
58.575,-0.009
58.59,0.04
58.605,0.054
58.62,0.053
58.635,0.009
58.65,0.01
58.665,0.022
58.68,0.013
58.695,0.004
58.71,0.001
58.725,-0.002
58.74,0.004
58.755,0.016
58.77,0.014
58.785,0.008
58.8,0.034
58.815,0.036
58.83,0.016
58.845,0.013
58.86,0.004
58.875,-0.004
58.89,0.008
58.905,0.001
58.92,0.018
58.935,0.05
58.95,0.031
58.965,0.017
58.98,0.026
58.995,0.014
59.01,0.024
59.025,0.013
59.04,-0.004
59.055,0.005
59.07,0.008
59.085,-0.006
59.1,-0.036
59.115,-0.012
59.13,0.007
59.145,-0.002
59.16,-0.009
59.175,0.009
59.19,0.025
59.205,-0.014
59.22,0.008
59.235,0.016
59.25,0.01
59.265,0.027
59.28,0.024
59.295,0.014
59.31,0.009
59.325,-0.003
59.34,0.005
59.355,0.007
59.37,0.008
59.385,-0.017
59.4,-0.016
59.415,0.016
59.43,-0.006
59.445,0.013
59.46,0.035
59.475,0.006
59.49,0.002
59.505,-0.005
59.52,-0.006
59.535,0.004
59.55,0.005
59.565,0
59.58,-0.01
59.595,-0.004
59.61,0.009
59.625,0.019
59.64,0.031
59.655,0.028
59.67,0.023
59.685,0.001
59.7,-0.009
59.715,-0.003
59.73,0.003
59.745,0.016
59.76,0.007
59.775,-0.009
59.79,-0.004
59.805,-0.001
59.82,-0.01
59.835,-0.011
59.85,-0.007
59.865,0.008
59.88,0.001
59.895,-0.002
59.91,-0.001
59.925,0.018
59.94,0.013
59.955,-0.024
59.97,-0.028
59.985,-0.029
60,-0.035
60.015,-0.008
60.03,-0.01
60.045,-0.008
60.06,0.001
60.075,0.001
60.09,-0.01
60.105,-0.03
60.12,0.005
60.135,0.001
60.15,-0.012
60.165,0.014
60.18,-0.016
60.195,-0.008
60.21,0.004
60.225,0.01
60.24,0.021
60.255,0.004
60.27,-0.008
60.285,0.015
60.3,0.005
60.315,-0.017
60.33,-0.017
60.345,-0.009
60.36,-0.015
60.375,0.001
60.39,0.002
60.405,-0.005
60.42,0.001
60.435,-0.016
60.45,-0.006
60.465,-0.001
60.48,-0.013
60.495,-0.023
60.51,-0.005
60.525,-0.006
60.54,-0.014
60.555,-0.005
60.57,-0.007
60.585,-0.018
60.6,-0.004
60.615,0.015
60.63,0.009
60.645,0
60.66,-0.013
60.675,-0.012
60.69,0
60.705,0
60.72,0.003
60.735,-0.016
60.75,-0.03
60.765,-0.018
60.78,-0.006
60.795,0.002
60.81,-0.012
60.825,-0.016
60.84,-0.005
60.855,-0.003
60.87,-0.008
60.885,-0.011
60.9,-0.019
60.915,-0.012
60.93,-0.022
60.945,-0.027
60.96,-0.023
60.975,-0.012
60.99,-0.018
61.005,-0.025
61.02,-0.008
61.035,-0.001
61.05,-0.002
61.065,-0.033
61.08,-0.011
61.095,0.01
61.11,-0.012
61.125,-0.004
61.14,-0.003
61.155,-0.011
61.17,-0.035
61.185,-0.035
61.2,-0.022
61.215,-0.02
61.23,-0.011
61.245,-0.002
61.26,-0.012
61.275,-0.01
61.29,-0.01
61.305,-0.002
61.32,-0.007
61.335,-0.008
61.35,-0.011
61.365,0.007
61.38,0.002
61.395,-0.005
61.41,-0.001
61.425,0.01
61.44,0.008
61.455,0.013
61.47,0.027
61.485,0.038
61.5,0.016
61.515,0.002
61.53,-0.016
61.545,0
61.56,0.016
61.575,0.009
61.59,0.015
61.605,0.009
61.62,-0.002
61.635,0.02
61.65,0.038
61.665,0.019
61.68,0.005
61.695,0.015
61.71,0.002
61.725,0.012
61.74,0.024
61.755,0.024
61.77,0.048
61.785,0.036
61.8,0.028
61.815,0.044
61.83,0.043
61.845,0.039
61.86,0.046
61.875,0.035
61.89,0.033
61.905,0.05
61.92,0.064
61.935,0.053
61.95,0.051
61.965,0.093
61.98,0.102
61.995,0.09
62.01,0.083
62.025,0.125
62.04,0.154
62.055,0.173
62.07,0.157
62.085,0.182
62.1,0.195
62.115,0.202
62.13,0.245
62.145,0.264
62.16,0.264
62.175,0.294
62.19,0.308
62.205,0.327
62.22,0.353
62.235,0.371
62.25,0.397
62.265,0.431
62.28,0.459
62.295,0.503
62.31,0.544
62.325,0.55
62.34,0.573
62.355,0.605
62.37,0.639
62.385,0.662
62.4,0.683
62.415,0.706
62.43,0.729
62.445,0.771
62.46,0.775
62.475,0.793
62.49,0.833
62.505,0.838
62.52,0.856
62.535,0.862
62.55,0.873
62.565,0.895
62.58,0.923
62.595,0.924
62.61,0.929
62.625,0.954
62.64,0.948
62.655,0.934
62.67,0.918
62.685,0.918
62.7,0.912
62.715,0.906
62.73,0.905
62.745,0.874
62.76,0.861
62.775,0.835
62.79,0.83
62.805,0.808
62.82,0.777
62.835,0.764
62.85,0.747
62.865,0.73
62.88,0.715
62.895,0.678
62.91,0.647
62.925,0.616
62.94,0.575
62.955,0.545
62.97,0.532
62.985,0.515
63,0.501
63.015,0.492
63.03,0.466
63.045,0.419
63.06,0.405
63.075,0.386
63.09,0.372
63.105,0.35
63.12,0.324
63.135,0.3
63.15,0.283
63.165,0.268
63.18,0.243
63.195,0.232
63.21,0.221
63.225,0.189
63.24,0.185
63.255,0.176
63.27,0.171
63.285,0.159
63.3,0.128
63.315,0.11
63.33,0.121
63.345,0.117
63.36,0.089
63.375,0.074
63.39,0.079
63.405,0.072
63.42,0.068
63.435,0.059
63.45,0.063
63.465,0.059
63.48,0.019
63.495,0.015
63.51,0.04
63.525,0.051
63.54,0.034
63.555,0.027
63.57,0.018
63.585,0.009
63.6,0.018
63.615,0.01
63.63,-0.002
63.645,0.026
63.66,0.022
63.675,-0.009
63.69,-0.019
63.705,-0.014
63.72,0.012
63.735,-0.001
63.75,0.002
63.765,-0.003
63.78,-0.018
63.795,-0.014
63.81,-0.009
63.825,-0.011
63.84,-0.003
63.855,0.001
63.87,0.011
63.885,0.021
63.9,-0.004
63.915,-0.024
63.93,-0.011
63.945,-0.006
63.96,-0.004
63.975,-0.001
63.99,-0.016
64.005,-0.03
64.02,-0.028
64.035,-0.025
64.05,-0.013
64.065,-0.019
64.08,-0.024
64.095,-0.02
64.11,-0.019
64.125,-0.01
64.14,0.007
64.155,-0.002
64.17,-0.004
64.185,-0.002
64.2,-0.017
64.215,-0.025
64.23,-0.019
64.245,-0.015
64.26,-0.007
64.275,-0.02
64.29,-0.012
64.305,0.001
64.32,-0.02
64.335,-0.034
64.35,-0.031
64.365,-0.014
64.38,-0.003
64.395,0.001
64.41,-0.005
64.425,0.005
64.44,0.005
64.455,-0.01
64.47,-0.006
64.485,-0.013
64.5,-0.016
64.515,-0.009
64.53,-0.001
64.545,0.012
64.56,-0.011
64.575,-0.016
64.59,-0.007
64.605,-0.028
64.62,-0.034
64.635,-0.031
64.65,-0.021
64.665,-0.006
64.68,-0.014
64.695,-0.015
64.71,-0.011
64.725,-0.015
64.74,-0.018
64.755,0.006
64.77,0.004
64.785,-0.016
64.8,-0.033
64.815,-0.03
64.83,-0.019
64.845,-0.003
64.86,0.009
64.875,0.013
64.89,-0.013
64.905,-0.021
64.92,-0.022
64.935,-0.017
64.95,-0.021
64.965,-0.028
64.98,-0.032
64.995,-0.028
65.01,-0.027
65.025,-0.022
65.04,-0.001
65.055,-0.011
65.07,-0.016
65.085,-0.01
65.1,0.001
65.115,-0.006
65.13,-0.006
65.145,0.006
65.16,-0.009
65.175,-0.019
65.19,-0.028
65.205,-0.03
65.22,-0.011
65.235,-0.028
65.25,-0.034
65.265,-0.02
65.28,-0.012
65.295,-0.002
65.31,0.017
65.325,0.018
65.34,-0.015
65.355,-0.009
65.37,-0.008
65.385,-0.007
65.4,-0.007
65.415,-0.001
65.43,-0.01
65.445,-0.017
65.46,-0.028
65.475,-0.024
65.49,-0.017
65.505,-0.009
65.52,0.01
65.535,-0.016
65.55,-0.03
65.565,-0.025
65.58,-0.012
65.595,-0.011
65.61,-0.012
65.625,-0.01
65.64,-0.021
65.655,-0.032
65.67,-0.02
65.685,-0.014
65.7,-0.018
65.715,-0.005
65.73,-0.012
65.745,0.001
65.76,0.002
65.775,-0.003
65.79,-0.023
65.805,-0.027
65.82,0.001
65.835,-0.003
65.85,-0.024
65.865,-0.015
65.88,-0.005
65.895,0.013
65.91,-0.005
65.925,0.001
65.94,0
65.955,-0.018
65.97,-0.006
65.985,-0.004
66,-0.02
66.015,-0.025
66.03,-0.018
66.045,-0.004
66.06,-0.015
66.075,0.008
66.09,-0.001
66.105,-0.003
66.12,-0.02
66.135,-0.01
66.15,-0.001
66.165,0.005
66.18,-0.004
66.195,-0.016
66.21,-0.017
66.225,-0.02
66.24,-0.023
66.255,-0.019
66.27,-0.008
66.285,0.003
66.3,0.01
66.315,-0.013
66.33,-0.019
66.345,-0.034
66.36,-0.017
66.375,-0.005
66.39,-0.005
66.405,-0.016
66.42,0
66.435,0
66.45,-0.006
66.465,0.005
66.48,-0.003
66.495,0.004
66.51,-0.03
66.525,-0.033
66.54,-0.025
66.555,-0.014
66.57,-0.007
66.585,0.006
66.6,-0.003
66.615,-0.001
66.63,-0.026
66.645,-0.024
66.66,-0.012
66.675,-0.001
66.69,-0.002
66.705,0.001
66.72,0.001
66.735,-0.014
66.75,-0.015
66.765,-0.022
66.78,-0.017
66.795,-0.006
66.81,-0.005
66.825,-0.014
66.84,-0.004
66.855,0.012
66.87,0.02
66.885,0.016
66.9,0.014
66.915,0.003
66.93,-0.009
66.945,-0.006
66.96,-0.008
66.975,-0.028
66.99,-0.027
67.005,-0.025
67.02,-0.017
67.035,0.003
67.05,0.006
67.065,0.001
67.08,-0.001
67.095,-0.014
67.11,-0.027
67.125,-0.021
67.14,-0.017
67.155,-0.015
67.17,-0.002
67.185,-0.007
67.2,-0.003
67.215,-0.02
67.23,-0.005
67.245,-0.007
67.26,0
67.275,-0.012
67.29,-0.011
67.305,-0.008
67.32,-0.033
67.335,-0.024
67.35,-0.006
67.365,-0.015
67.38,-0.007
67.395,-0.016
67.41,-0.018
67.425,-0.014
67.44,-0.016
67.455,-0.013
67.47,-0.015
67.485,-0.02
67.5,0.004
67.515,0.005
67.53,-0.009
67.545,-0.003
67.56,-0.027
67.575,-0.033
67.59,-0.024
67.605,-0.029
67.62,-0.001
67.635,-0.006
67.65,-0.009
67.665,-0.005
67.68,0
67.695,-0.001
67.71,0.016
67.725,0.012
67.74,-0.007
67.755,-0.018
67.77,-0.012
67.785,-0.016
67.8,-0.013
67.815,-0.013
67.83,-0.011
67.845,-0.029
67.86,-0.009
67.875,0.001
67.89,-0.015
67.905,-0.018
67.92,0.003
67.935,-0.012
67.95,-0.012
67.965,0
67.98,-0.01
67.995,-0.01
68.01,-0.021
68.025,-0.031
68.04,-0.03
68.055,-0.015
68.07,-0.005
68.085,-0.008
68.1,-0.015
68.115,0.004
68.13,0.01
68.145,-0.005
68.16,-0.011
68.175,0.002
68.19,-0.011
68.205,-0.001
68.22,0.001
68.235,-0.014
68.25,-0.016
68.265,-0.028
68.28,-0.024
68.295,-0.02
68.31,-0.029
68.325,-0.002
68.34,-0.005
68.355,-0.023
68.37,-0.033
68.385,-0.004
68.4,0.003
68.415,-0.023
68.43,-0.019
68.445,0.002
68.46,-0.01
68.475,-0.012
68.49,0.007
68.505,-0.005
68.52,-0.007
68.535,-0.031
68.55,-0.015
68.565,0.008
68.58,-0.002
68.595,-0.005
68.61,0.001
68.625,-0.002
68.64,-0.001
68.655,-0.003
68.67,0.007
68.685,0.015
68.7,0.003
68.715,-0.013
68.73,-0.018
68.745,-0.01
68.76,0.003
68.775,-0.01
68.79,-0.013
68.805,-0.012
68.82,-0.006
68.835,-0.011
68.85,-0.019
68.865,-0.029
68.88,0.006
68.895,0.007
68.91,-0.014
68.925,0.002
68.94,-0.006
68.955,-0.025
68.97,-0.033
68.985,-0.032
69,-0.005
69.015,0
69.03,-0.013
69.045,-0.015
69.06,-0.031
69.075,-0.027
69.09,-0.011
69.105,-0.014
69.12,-0.003
69.135,0.009
69.15,-0.023
69.165,-0.013
69.18,-0.013
69.195,-0.024
69.21,-0.011
69.225,0.012
69.24,0.005
69.255,0.001
69.27,0.002
69.285,0
69.3,-0.014
69.315,-0.008
69.33,-0.009
69.345,0.01
69.36,0.011
69.375,0.004
69.39,-0.002
69.405,-0.016
69.42,-0.033
69.435,-0.026
69.45,-0.012
69.465,-0.018
69.48,-0.006
69.495,0.009
69.51,-0.01
69.525,-0.018
69.54,-0.002
69.555,0.001
69.57,-0.007
69.585,-0.008
69.6,0.007
69.615,0.004
69.63,-0.002
69.645,0.006
69.66,0.012
69.675,0.001
69.69,-0.003
69.705,-0.008
69.72,0.002
69.735,0.006
69.75,0.007
69.765,0.011
69.78,0.015
69.795,0.021
69.81,0.02
69.825,0.026
69.84,0.024
69.855,0.027
69.87,0.018
69.885,0.011
69.9,0.018
69.915,0.011
69.93,0
69.945,0.009
69.96,0.022
69.975,0.012
69.99,0.021
70.005,-0.002
70.02,0.007
70.035,0.017
70.05,-0.007
70.065,0
70.08,-0.012
70.095,0.011
70.11,0.009
70.125,0
70.14,0.022
70.155,0.005
70.17,0.004
70.185,0.01
70.2,-0.001
70.215,0.003
70.23,0.013
70.245,0.01
70.26,-0.002
70.275,0.004
70.29,0.017
70.305,0.014
70.32,0.012
70.335,0.018
70.35,0.004
70.365,0.002
70.38,0.026
70.395,0.02
70.41,0.01
70.425,0.013
70.44,0.022
70.455,0.015
70.47,-0.008
70.485,-0.001
70.5,0.019
70.515,0.016
70.53,0.016
70.545,0.007
70.56,0.026
70.575,0.017
70.59,0.014
70.605,0.042
70.62,0.028
70.635,0.03
70.65,0.05
70.665,0.056
70.68,0.051
70.695,0.056
70.71,0.038
70.725,0.034
70.74,0.036
70.755,0.03
70.77,0.035
70.785,0.039
70.8,0.041
70.815,0.04
70.83,0.053
70.845,0.071
70.86,0.063
70.875,0.07
70.89,0.067
70.905,0.056
70.92,0.043
70.935,0.055
70.95,0.076
70.965,0.056
70.98,0.054
70.995,0.05
71.01,0.049
71.025,0.055
71.04,0.061
71.055,0.069
71.07,0.084
71.085,0.077
71.1,0.071
71.115,0.067
71.13,0.063
71.145,0.047
71.16,0.035
71.175,0.041
71.19,0.055
71.205,0.069
71.22,0.068
71.235,0.073
71.25,0.061
71.265,0.057
71.28,0.055
71.295,0.044
71.31,0.045
71.325,0.047
71.34,0.054
71.355,0.044
71.37,0.05
71.385,0.071
71.4,0.055
71.415,0.041
71.43,0.044
71.445,0.039
71.46,0.037
71.475,0.036
71.49,0.034
71.505,0.049
71.52,0.055
71.535,0.051
71.55,0.067
71.565,0.045
71.58,0.003
71.595,0.012
71.61,0.035
71.625,0.047
71.64,0.037
71.655,0.035
71.67,0.02
71.685,0.022
71.7,0.008
71.715,-0.004
71.73,0.005
71.745,0.023
71.76,0.036
71.775,0.05
71.79,0.05
71.805,0.023
71.82,0.006
71.835,0.007
71.85,0.003
71.865,0.007
71.88,0.014
71.895,0.03
71.91,0.022
71.925,0.033
71.94,0.033
71.955,0.029
71.97,0.026
71.985,0.015
72,0.018
72.015,0.02
72.03,-0.002
72.045,-0.008
72.06,-0.003
72.075,-0.011
72.09,-0.004
72.105,0.013
72.12,0.024
72.135,0.021
72.15,0.026
72.165,0.033
72.18,0.036
72.195,0.023
72.21,0.025
72.225,0.027
72.24,0.009
72.255,0.011
72.27,0.018
72.285,0.013
72.3,0.016
72.315,0.022
72.33,0.016
72.345,0.029
72.36,0.031
72.375,0.028
72.39,0.029
72.405,0.031
72.42,0.025
72.435,0.013
72.45,0.025
72.465,0.038
72.48,0.034
72.495,0.033
72.51,0.033
72.525,0.037
72.54,0.05
72.555,0.045
72.57,0.039
72.585,0.047
72.6,0.048
72.615,0.046
72.63,0.039
72.645,0.044
72.66,0.037
72.675,0.034
72.69,0.046
72.705,0.04
72.72,0.045
72.735,0.063
72.75,0.054
72.765,0.043
72.78,0.03
72.795,0.044
72.81,0.04
72.825,0.065
72.84,0.047
72.855,0.037
72.87,0.054
72.885,0.043
72.9,0.053
72.915,0.058
72.93,0.074
72.945,0.068
72.96,0.071
72.975,0.069
72.99,0.063
73.005,0.049
73.02,0.055
73.035,0.056
73.05,0.062
73.065,0.064
73.08,0.054
73.095,0.058
73.11,0.065
73.125,0.081
73.14,0.093
73.155,0.08
73.17,0.063
73.185,0.061
73.2,0.08
73.215,0.088
73.23,0.077
73.245,0.063
73.26,0.067
73.275,0.083
73.29,0.081
73.305,0.102
73.32,0.105
73.335,0.092
73.35,0.073
73.365,0.08
73.38,0.077
73.395,0.073
73.41,0.1
73.425,0.105
73.44,0.101
73.455,0.091
73.47,0.074
73.485,0.101
73.5,0.123
73.515,0.121
73.53,0.109
73.545,0.098
73.56,0.112
73.575,0.131
73.59,0.129
73.605,0.125
73.62,0.127
73.635,0.131
73.65,0.129
73.665,0.149
73.68,0.153
73.695,0.142
73.71,0.151
73.725,0.151
73.74,0.153
73.755,0.158
73.77,0.175
73.785,0.181
73.8,0.186
73.815,0.188
73.83,0.189
73.845,0.194
73.86,0.194
73.875,0.199
73.89,0.205
73.905,0.209
73.92,0.23
73.935,0.222
73.95,0.231
73.965,0.223
73.98,0.217
73.995,0.218
74.01,0.228
74.025,0.22
74.04,0.229
74.055,0.235
74.07,0.225
74.085,0.212
74.1,0.226
74.115,0.242
74.13,0.25
74.145,0.269
74.16,0.252
74.175,0.244
74.19,0.25
74.205,0.249
74.22,0.23
74.235,0.219
74.25,0.229
74.265,0.24
74.28,0.238
74.295,0.228
74.31,0.234
74.325,0.215
74.34,0.209
74.355,0.231
74.37,0.243
74.385,0.253
74.4,0.246
74.415,0.237
74.43,0.228
74.445,0.218
74.46,0.212
74.475,0.214
74.49,0.209
74.505,0.21
74.52,0.215
74.535,0.214
74.55,0.209
74.565,0.217
74.58,0.22
74.595,0.209
74.61,0.195
74.625,0.195
74.64,0.229
74.655,0.238
74.67,0.226
74.685,0.198
74.7,0.185
74.715,0.201
74.73,0.22
74.745,0.199
74.76,0.189
74.775,0.188
74.79,0.192
74.805,0.204
74.82,0.213
74.835,0.215
74.85,0.216
74.865,0.216
74.88,0.21
74.895,0.218
74.91,0.234
74.925,0.211
74.94,0.186
74.955,0.189
74.97,0.205
74.985,0.211
75,0.197
75.015,0.203
75.03,0.191
75.045,0.194
75.06,0.176
75.075,0.15
75.09,0.137
75.105,0.125
75.12,0.083
75.135,0.088
75.15,0.062
75.165,0.083
75.18,0.094
75.195,0.109
75.21,0.134
75.225,0.078
75.24,0.052
75.255,0.091
75.27,0.11
75.285,0.086
75.3,0.017
75.315,-0.06
75.33,-0.249
75.345,0
