24.99,29.826
25.005,29.774
25.02,29.769
25.035,29.781
25.05,29.682
25.065,29.631
25.08,29.589
25.095,29.542
25.11,29.632
25.125,29.632
25.14,29.521
25.155,29.509
25.17,29.62
25.185,29.585
25.2,29.53
25.215,29.66
25.23,29.664
25.245,29.534
25.26,29.43
25.275,29.402
25.29,29.47
25.305,29.486
25.32,29.418
25.335,29.424
25.35,29.334
25.365,29.333
25.38,29.388
25.395,29.348
25.41,29.387
25.425,29.417
25.44,29.386
25.455,29.417
25.47,29.444
25.485,29.379
25.5,29.333
25.515,29.27
25.53,29.323
25.545,29.326
25.56,29.264
25.575,29.247
25.59,29.309
25.605,29.24
25.62,29.219
25.635,29.304
25.65,29.267
25.665,29.255
25.68,29.253
25.695,29.276
25.71,29.254
25.725,29.182
25.74,29.178
25.755,29.168
25.77,29.182
25.785,29.158
25.8,29.098
25.815,29.17
25.83,29.106
25.845,29.046
25.86,29.091
25.875,29.109
25.89,29.096
25.905,29.038
25.92,29.061
25.935,29.048
25.95,28.99
25.965,29.004
25.98,29.027
25.995,28.932
26.01,29.017
26.025,28.987
26.04,28.986
26.055,28.952
26.07,28.928
26.085,28.931
26.1,28.917
26.115,28.954
26.13,28.943
26.145,28.944
26.16,28.911
26.175,28.834
26.19,28.845
26.205,28.908
26.22,28.886
26.235,28.906
26.25,28.922
26.265,28.932
26.28,28.887
26.295,28.783
26.31,28.786
26.325,28.77
26.34,28.749
26.355,28.811
26.37,28.85
26.385,28.766
26.4,28.703
26.415,28.694
26.43,28.728
26.445,28.757
26.46,28.696
26.475,28.679
26.49,28.675
26.505,28.612
26.52,28.641
26.535,28.643
26.55,28.649
26.565,28.585
26.58,28.58
26.595,28.604
26.61,28.623
26.625,28.61
26.64,28.581
26.655,28.554
26.67,28.494
26.685,28.516
26.7,28.512
26.715,28.48
26.73,28.531
26.745,28.541
26.76,28.565
26.775,28.535
26.79,28.527
26.805,28.494
26.82,28.46
26.835,28.456
26.85,28.455
26.865,28.488
26.88,28.439
26.895,28.454
26.91,28.422
26.925,28.353
26.94,28.371
26.955,28.387
26.97,28.39
26.985,28.363
27,28.39
27.015,28.454
27.03,28.394
27.045,28.352
27.06,28.348
27.075,28.307
27.09,28.286
27.105,28.304
27.12,28.313
27.135,28.328
27.15,28.272
27.165,28.302
27.18,28.297
27.195,28.257
27.21,28.21
27.225,28.213
27.24,28.195
27.255,28.154
27.27,28.146
27.285,28.21
27.3,28.204
27.315,28.205
27.33,28.136
27.345,28.165
27.36,28.165
27.375,28.178
27.39,28.166
27.405,28.149
27.42,28.189
27.435,28.155
27.45,28.111
27.465,28.124
27.48,28.081
27.495,28.05
27.51,28.048
27.525,28.026
27.54,28.029
27.555,28.043
27.57,28.008
27.585,28.037
27.6,28.029
27.615,28.028
27.63,28.043
27.645,27.992
27.66,27.888
27.675,27.963
27.69,27.993
27.705,27.987
27.72,27.955
27.735,27.899
27.75,27.942
27.765,27.92
27.78,27.907
27.795,27.92
27.81,27.927
27.825,27.91
27.84,27.904
27.855,27.919
27.87,27.915
27.885,27.908
27.9,27.895
27.915,27.925
27.93,27.892
27.945,27.863
27.96,27.871
27.975,27.873
27.99,27.853
28.005,27.839
28.02,27.836
28.035,27.818
28.05,27.826
28.065,27.836
28.08,27.87
28.095,27.884
28.11,27.817
28.125,27.805
28.14,27.839
28.155,27.849
28.17,27.779
28.185,27.779
28.2,27.817
28.215,27.82
28.23,27.813
28.245,27.818
28.26,27.806
28.275,27.799
28.29,27.781
28.305,27.763
28.32,27.805
28.335,27.813
28.35,27.768
28.365,27.683
28.38,27.656
28.395,27.707
28.41,27.752
28.425,27.755
28.44,27.73
28.455,27.679
28.47,27.659
28.485,27.676
28.5,27.684
28.515,27.705
28.53,27.751
28.545,27.719
28.56,27.704
28.575,27.74
28.59,27.696
28.605,27.695
28.62,27.665
28.635,27.704
28.65,27.704
28.665,27.695
28.68,27.714
28.695,27.709
28.71,27.697
28.725,27.694
28.74,27.676
28.755,27.663
28.77,27.634
28.785,27.632
28.8,27.614
28.815,27.632
28.83,27.618
28.845,27.611
28.86,27.601
28.875,27.596
28.89,27.603
28.905,27.649
28.92,27.706
28.935,27.704
28.95,27.634
28.965,27.636
28.98,27.62
28.995,27.589
29.01,27.633
29.025,27.66
29.04,27.641
29.055,27.626
29.07,27.596
29.085,27.573
29.1,27.521
29.115,27.55
29.13,27.582
29.145,27.585
29.16,27.569
29.175,27.569
29.19,27.582
29.205,27.574
29.22,27.581
29.235,27.603
29.25,27.623
29.265,27.597
29.28,27.567
29.295,27.55
29.31,27.583
29.325,27.591
29.34,27.587
29.355,27.593
29.37,27.569
29.385,27.543
29.4,27.614
29.415,27.591
29.43,27.646
29.445,27.657
29.46,27.657
29.475,27.692
29.49,27.711
29.505,27.72
29.52,27.784
29.535,27.83
29.55,27.806
29.565,27.868
29.58,27.929
29.595,27.977
29.61,28.053
29.625,28.126
29.64,28.197
29.655,28.253
29.67,28.347
29.685,28.443
29.7,28.488
29.715,28.608
29.73,28.752
29.745,28.87
29.76,28.964
29.775,29.05
29.79,29.137
29.805,29.288
29.82,29.422
29.835,29.507
29.85,29.681
29.865,29.818
29.88,29.985
29.895,30.092
29.91,30.221
29.925,30.374
29.94,30.465
29.955,30.604
29.97,30.695
29.985,30.782
30,30.867
30.015,30.906
30.03,30.945
30.045,30.995
30.06,31.09
30.075,31.088
30.09,31.048
30.105,31.034
30.12,31.038
30.135,30.978
30.15,30.938
30.165,30.926
30.18,30.88
30.195,30.818
30.21,30.698
30.225,30.588
30.24,30.456
30.255,30.348
30.27,30.233
30.285,30.132
30.3,29.954
30.315,29.74
30.33,29.633
30.345,29.56
30.36,29.413
30.375,29.224
30.39,29.112
30.405,29.032
30.42,28.912
30.435,28.784
30.45,28.653
30.465,28.523
30.48,28.399
30.495,28.338
30.51,28.229
30.525,28.057
30.54,28.004
30.555,27.932
30.57,27.835
30.585,27.737
30.6,27.671
30.615,27.603
30.63,27.52
30.645,27.47
30.66,27.485
30.675,27.443
30.69,27.337
30.705,27.287
30.72,27.237
30.735,27.173
30.75,27.181
30.765,27.133
30.78,27.14
30.795,27.162
30.81,27.104
30.825,27.081
30.84,27.057
30.855,27.029
30.87,26.977
30.885,27.037
30.9,27.019
30.915,26.972
30.93,26.958
30.945,26.947
30.96,26.961
30.975,26.936
30.99,26.982
31.005,26.94
31.02,26.959
31.035,26.946
31.05,26.881
31.065,26.844
31.08,26.798
31.095,26.845
31.11,26.834
31.125,26.809
31.14,26.863
31.155,26.868
31.17,26.803
31.185,26.798
31.2,26.779
31.215,26.774
31.23,26.769
31.245,26.752
31.26,26.791
31.275,26.77
31.29,26.77
31.305,26.707
31.32,26.696
31.335,26.773
31.35,26.748
31.365,26.722
31.38,26.708
31.395,26.686
31.41,26.699
31.425,26.691
31.44,26.71
31.455,26.671
31.47,26.661
31.485,26.654
31.5,26.673
31.515,26.7
31.53,26.645
31.545,26.665
31.56,26.669
31.575,26.658
31.59,26.618
31.605,26.56
31.62,26.638
31.635,26.677
31.65,26.691
31.665,26.686
31.68,26.649
31.695,26.664
31.71,26.699
31.725,26.652
31.74,26.646
31.755,26.693
31.77,26.627
31.785,26.556
31.8,26.553
31.815,26.543
31.83,26.564
31.845,26.533
31.86,26.505
31.875,26.48
31.89,26.514
31.905,26.479
31.92,26.458
31.935,26.464
31.95,26.451
31.965,26.453
31.98,26.495
31.995,26.509
32.01,26.494
32.025,26.447
32.04,26.449
32.055,26.452
32.07,26.463
32.085,26.44
32.1,26.371
32.115,26.365
32.13,26.397
32.145,26.389
32.16,26.357
32.175,26.376
32.19,26.381
32.205,26.37
32.22,26.364
32.235,26.353
32.25,26.376
32.265,26.361
32.28,26.373
32.295,26.37
32.31,26.357
32.325,26.319
32.34,26.274
32.355,26.323
32.37,26.377
32.385,26.375
32.4,26.288
32.415,26.263
32.43,26.277
32.445,26.315
32.46,26.336
32.475,26.323
32.49,26.334
32.505,26.342
32.52,26.305
32.535,26.261
32.55,26.269
32.565,26.299
32.58,26.302
32.595,26.309
32.61,26.29
32.625,26.234
32.64,26.24
32.655,26.269
32.67,26.261
32.685,26.228
32.7,26.204
32.715,26.151
32.73,26.132
32.745,26.167
32.76,26.159
32.775,26.182
32.79,26.228
32.805,26.162
32.82,26.148
32.835,26.172
32.85,26.185
32.865,26.15
32.88,26.099
32.895,26.063
32.91,26.105
32.925,26.155
32.94,26.151
32.955,26.108
32.97,26.121
32.985,26.153
33,26.139
33.015,26.178
33.03,26.113
33.045,26.099
33.06,26.154
33.075,26.171
33.09,26.115
33.105,26.086
33.12,26.129
33.135,26.139
33.15,26.098
33.165,26.056
33.18,26.069
33.195,26.106
33.21,26.069
33.225,26.061
33.24,26.054
33.255,26.061
33.27,26.008
33.285,26.045
33.3,26.101
33.315,26.05
33.33,26.047
33.345,26.036
33.36,26.045
33.375,26.014
33.39,26.018
33.405,26.056
33.42,26.038
33.435,25.989
33.45,25.963
33.465,26.004
33.48,26.04
33.495,26.01
33.51,25.994
33.525,25.997
33.54,25.957
33.555,26
33.57,25.961
33.585,25.995
33.6,26.011
33.615,26.04
33.63,25.994
33.645,25.966
33.66,25.922
33.675,25.965
33.69,25.986
33.705,25.98
33.72,25.985
33.735,26.017
33.75,26.001
33.765,26.001
33.78,26.026
33.795,26.019
33.81,25.993
33.825,25.989
33.84,25.978
33.855,25.981
33.87,25.956
33.885,25.969
33.9,26.017
33.915,26.031
33.93,25.969
33.945,25.99
33.96,26.028
33.975,26.017
33.99,26.014
34.005,26.035
34.02,26.052
34.035,26.001
34.05,25.941
34.065,26
34.08,25.988
34.095,25.933
34.11,25.963
34.125,26.005
34.14,25.95
34.155,25.999
34.17,25.965
34.185,26.025
34.2,26.09
34.215,26.044
34.23,26.031
34.245,26.08
34.26,26.079
34.275,26.082
34.29,26.099
34.305,26.147
34.32,26.096
34.335,26.095
34.35,26.076
34.365,26.097
34.38,26.137
34.395,26.154
34.41,26.149
34.425,26.156
34.44,26.16
34.455,26.212
34.47,26.202
34.485,26.196
34.5,26.238
34.515,26.289
34.53,26.238
34.545,26.24
34.56,26.271
34.575,26.276
34.59,26.298
34.605,26.295
34.62,26.266
34.635,26.257
34.65,26.304
34.665,26.375
34.68,26.38
34.695,26.402
34.71,26.438
34.725,26.405
34.74,26.475
34.755,26.536
34.77,26.597
34.785,26.655
34.8,26.718
34.815,26.81
34.83,26.87
34.845,26.977
34.86,27.067
34.875,27.17
34.89,27.284
34.905,27.437
34.92,27.642
34.935,27.791
34.95,28.003
34.965,28.236
34.98,28.43
34.995,28.693
35.01,28.91
35.025,29.141
35.04,29.44
35.055,29.808
35.07,30.124
35.085,30.429
35.1,30.779
35.115,31.174
35.13,31.542
35.145,31.952
35.16,32.357
35.175,32.723
35.19,33.075
35.205,33.531
35.22,33.896
35.235,34.307
35.25,34.693
35.265,35.058
35.28,35.457
35.295,35.83
35.31,36.124
35.325,36.374
35.34,36.685
35.355,37.008
35.37,37.247
35.385,37.412
35.4,37.508
35.415,37.62
35.43,37.719
35.445,37.761
35.46,37.743
35.475,37.686
35.49,37.564
35.505,37.499
35.52,37.395
35.535,37.124
35.55,36.839
35.565,36.578
35.58,36.361
35.595,36.056
35.61,35.694
35.625,35.32
35.64,35.022
35.655,34.663
35.67,34.188
35.685,33.823
35.7,33.392
35.715,32.98
35.73,32.59
35.745,32.224
35.76,31.859
35.775,31.508
35.79,31.044
35.805,30.661
35.82,30.338
35.835,30.025
35.85,29.696
35.865,29.309
35.88,29.016
35.895,28.764
35.91,28.506
35.925,28.157
35.94,27.963
35.955,27.782
35.97,27.604
35.985,27.38
36,27.18
36.015,27.017
36.03,26.808
36.045,26.666
36.06,26.597
36.075,26.54
36.09,26.45
36.105,26.247
36.12,26.157
36.135,26.157
36.15,26.093
36.165,26.039
36.18,25.962
36.195,25.883
36.21,25.846
36.225,25.886
36.24,25.841
36.255,25.792
36.27,25.716
36.285,25.666
36.3,25.674
36.315,25.693
36.33,25.646
36.345,25.577
36.36,25.571
36.375,25.611
36.39,25.602
36.405,25.551
36.42,25.489
36.435,25.475
36.45,25.481
36.465,25.487
36.48,25.552
36.495,25.516
36.51,25.486
36.525,25.438
36.54,25.507
36.555,25.448
36.57,25.415
36.585,25.417
36.6,25.464
36.615,25.466
36.63,25.453
36.645,25.432
36.66,25.419
36.675,25.471
36.69,25.487
36.705,25.466
36.72,25.448
36.735,25.445
36.75,25.45
36.765,25.499
36.78,25.472
36.795,25.466
36.81,25.537
36.825,25.549
36.84,25.585
36.855,25.581
36.87,25.559
36.885,25.578
36.9,25.654
36.915,25.678
36.93,25.667
36.945,25.716
36.96,25.713
36.975,25.699
36.99,25.72
37.005,25.698
37.02,25.681
37.035,25.678
37.05,25.682
37.065,25.631
37.08,25.65
37.095,25.659
37.11,25.605
37.125,25.598
37.14,25.558
37.155,25.539
37.17,25.519
37.185,25.525
37.2,25.458
37.215,25.361
37.23,25.37
37.245,25.374
37.26,25.358
37.275,25.325
37.29,25.245
37.305,25.16
37.32,25.19
37.335,25.163
37.35,25.158
37.365,25.131
37.38,25.071
37.395,25.026
37.41,25.022
37.425,25.029
37.44,24.955
37.455,24.902
37.47,24.859
37.485,24.875
37.5,24.836
37.515,24.807
37.53,24.805
37.545,24.783
37.56,24.763
37.575,24.752
37.59,24.749
37.605,24.728
37.62,24.668
37.635,24.623
37.65,24.643
37.665,24.695
37.68,24.656
37.695,24.603
37.71,24.582
37.725,24.599
37.74,24.615
37.755,24.571
37.77,24.514
37.785,24.503
37.8,24.488
37.815,24.545
37.83,24.53
37.845,24.516
37.86,24.489
37.875,24.481
37.89,24.497
37.905,24.47
37.92,24.431
37.935,24.431
37.95,24.459
37.965,24.467
37.98,24.433
37.995,24.412
38.01,24.423
38.025,24.461
38.04,24.477
38.055,24.426
38.07,24.373
38.085,24.406
38.1,24.456
38.115,24.454
38.13,24.435
38.145,24.386
38.16,24.38
38.175,24.386
38.19,24.345
38.205,24.382
38.22,24.388
38.235,24.35
38.25,24.35
38.265,24.38
38.28,24.371
38.295,24.349
38.31,24.353
38.325,24.336
38.34,24.323
38.355,24.332
38.37,24.342
38.385,24.318
38.4,24.327
38.415,24.323
38.43,24.332
38.445,24.336
38.46,24.322
38.475,24.287
38.49,24.269
38.505,24.296
38.52,24.338
38.535,24.286
38.55,24.305
38.565,24.313
38.58,24.258
38.595,24.251
38.61,24.27
38.625,24.228
38.64,24.251
38.655,24.263
38.67,24.216
38.685,24.172
38.7,24.202
38.715,24.253
38.73,24.241
38.745,24.197
38.76,24.167
38.775,24.238
38.79,24.219
38.805,24.228
38.82,24.215
38.835,24.162
38.85,24.173
38.865,24.171
38.88,24.157
38.895,24.155
38.91,24.162
38.925,24.125
38.94,24.152
38.955,24.111
38.97,24.099
38.985,24.126
39,24.165
39.015,24.163
39.03,24.175
39.045,24.096
39.06,24.029
39.075,24.096
39.09,24.14
39.105,24.108
39.12,24.073
39.135,24.075
39.15,24.137
39.165,24.2
39.18,24.087
39.195,24.074
39.21,24.094
39.225,24.075
39.24,24.099
39.255,24.089
39.27,24.077
39.285,24.041
39.3,24.053
39.315,24.059
39.33,24.055
39.345,24.025
39.36,24.093
39.375,24.071
39.39,24.009
39.405,24.01
39.42,23.981
39.435,24.021
39.45,24.06
39.465,24.023
39.48,24.015
39.495,24.024
39.51,23.967
39.525,23.968
39.54,23.976
39.555,23.969
39.57,23.978
39.585,23.945
39.6,23.964
39.615,23.973
39.63,23.954
39.645,23.942
39.66,23.918
39.675,23.913
39.69,23.917
39.705,23.918
39.72,23.932
39.735,23.947
39.75,23.937
39.765,23.964
39.78,23.974
39.795,23.927
39.81,23.912
39.825,23.891
39.84,23.843
39.855,23.904
39.87,23.878
39.885,23.862
39.9,23.875
39.915,23.824
39.93,23.896
39.945,23.892
39.96,23.83
39.975,23.864
39.99,23.882
40.005,23.894
40.02,23.859
40.035,23.794
40.05,23.808
40.065,23.814
40.08,23.815
40.095,23.859
40.11,23.816
40.125,23.799
40.14,23.783
40.155,23.806
40.17,23.788
40.185,23.78
40.2,23.778
40.215,23.797
40.23,23.82
40.245,23.806
40.26,23.783
40.275,23.801
40.29,23.775
40.305,23.756
40.32,23.784
40.335,23.759
40.35,23.759
40.365,23.747
40.38,23.768
40.395,23.787
40.41,23.741
40.425,23.714
40.44,23.738
40.455,23.726
40.47,23.719
40.485,23.734
40.5,23.701
40.515,23.724
40.53,23.722
40.545,23.686
40.56,23.725
40.575,23.722
40.59,23.639
40.605,23.631
40.62,23.699
40.635,23.659
40.65,23.607
40.665,23.635
40.68,23.649
40.695,23.617
40.71,23.607
40.725,23.635
40.74,23.619
40.755,23.592
40.77,23.598
40.785,23.546
40.8,23.597
40.815,23.62
40.83,23.629
40.845,23.606
40.86,23.591
40.875,23.592
40.89,23.573
40.905,23.569
40.92,23.54
40.935,23.54
40.95,23.546
40.965,23.524
40.98,23.602
40.995,23.568
41.01,23.546
41.025,23.562
41.04,23.538
41.055,23.535
41.07,23.504
41.085,23.51
41.1,23.555
41.115,23.539
41.13,23.506
41.145,23.528
41.16,23.495
41.175,23.481
41.19,23.499
41.205,23.474
41.22,23.467
41.235,23.477
41.25,23.508
41.265,23.496
41.28,23.451
41.295,23.443
41.31,23.459
41.325,23.454
41.34,23.435
41.355,23.429
41.37,23.361
41.385,23.403
41.4,23.447
41.415,23.475
41.43,23.439
41.445,23.407
41.46,23.388
41.475,23.452
41.49,23.39
41.505,23.384
41.52,23.433
41.535,23.389
41.55,23.4
41.565,23.364
41.58,23.344
41.595,23.36
41.61,23.378
41.625,23.379
41.64,23.387
41.655,23.408
41.67,23.382
41.685,23.395
41.7,23.374
41.715,23.357
41.73,23.383
41.745,23.375
41.76,23.37
41.775,23.333
41.79,23.336
41.805,23.34
41.82,23.32
41.835,23.355
41.85,23.336
41.865,23.286
41.88,23.298
41.895,23.318
41.91,23.315
41.925,23.323
41.94,23.324
41.955,23.344
41.97,23.38
41.985,23.359
42,23.345
42.015,23.314
42.03,23.312
42.045,23.329
42.06,23.329
42.075,23.322
42.09,23.292
42.105,23.291
42.12,23.297
42.135,23.332
42.15,23.343
42.165,23.323
42.18,23.315
42.195,23.336
42.21,23.355
42.225,23.351
42.24,23.339
42.255,23.309
42.27,23.309
42.285,23.351
42.3,23.352
42.315,23.339
42.33,23.359
42.345,23.364
42.36,23.358
42.375,23.341
42.39,23.351
42.405,23.363
42.42,23.387
42.435,23.43
42.45,23.405
42.465,23.392
42.48,23.416
42.495,23.402
42.51,23.401
42.525,23.458
42.54,23.511
42.555,23.553
42.57,23.581
42.585,23.595
42.6,23.633
42.615,23.646
42.63,23.689
42.645,23.77
42.66,23.823
42.675,23.853
42.69,23.891
42.705,23.917
42.72,24.027
42.735,24.065
42.75,24.115
42.765,24.16
42.78,24.208
42.795,24.344
42.81,24.444
42.825,24.466
42.84,24.548
42.855,24.631
42.87,24.676
42.885,24.789
42.9,24.896
42.915,24.954
42.93,24.964
42.945,25.07
42.96,25.151
42.975,25.234
42.99,25.282
43.005,25.365
43.02,25.354
43.035,25.393
43.05,25.469
43.065,25.523
43.08,25.498
43.095,25.479
43.11,25.498
43.125,25.476
43.14,25.411
43.155,25.347
43.17,25.349
43.185,25.288
43.2,25.265
43.215,25.191
43.23,25.144
43.245,25.068
43.26,24.917
43.275,24.843
43.29,24.811
43.305,24.718
43.32,24.694
43.335,24.588
43.35,24.449
43.365,24.408
43.38,24.312
43.395,24.167
43.41,24.075
43.425,24.018
43.44,23.964
43.455,23.895
43.47,23.788
43.485,23.718
43.5,23.671
43.515,23.596
43.53,23.481
43.545,23.446
43.56,23.412
43.575,23.372
43.59,23.341
43.605,23.25
43.62,23.21
43.635,23.167
43.65,23.183
43.665,23.082
43.68,22.995
43.695,22.999
43.71,23.02
43.725,23.011
43.74,22.984
43.755,22.947
43.77,22.894
43.785,22.855
43.8,22.914
43.815,22.859
43.83,22.859
43.845,22.856
43.86,22.839
43.875,22.829
43.89,22.821
43.905,22.836
43.92,22.833
43.935,22.767
43.95,22.756
43.965,22.754
43.98,22.737
43.995,22.739
44.01,22.684
44.025,22.739
44.04,22.763
44.055,22.723
44.07,22.704
44.085,22.683
44.1,22.672
44.115,22.686
44.13,22.707
44.145,22.699
44.16,22.691
44.175,22.583
44.19,22.566
44.205,22.624
44.22,22.653
44.235,22.616
44.25,22.626
44.265,22.662
44.28,22.658
44.295,22.592
44.31,22.579
44.325,22.546
44.34,22.53
44.355,22.53
44.37,22.571
44.385,22.574
44.4,22.564
44.415,22.559
44.43,22.561
44.445,22.527
44.46,22.54
44.475,22.468
44.49,22.466
44.505,22.518
44.52,22.521
44.535,22.505
44.55,22.468
44.565,22.479
44.58,22.511
44.595,22.464
44.61,22.416
44.625,22.467
44.64,22.473
44.655,22.445
44.67,22.382
44.685,22.423
44.7,22.429
44.715,22.426
44.73,22.41
44.745,22.39
44.76,22.35
44.775,22.34
44.79,22.393
44.805,22.407
44.82,22.442
44.835,22.434
44.85,22.402
44.865,22.383
44.88,22.356
44.895,22.365
44.91,22.36
44.925,22.355
44.94,22.366
44.955,22.381
44.97,22.368
44.985,22.347
45,22.351
45.015,22.374
45.03,22.345
45.045,22.304
45.06,22.308
45.075,22.355
45.09,22.331
45.105,22.289
45.12,22.301
45.135,22.281
45.15,22.293
45.165,22.284
45.18,22.279
45.195,22.312
45.21,22.297
45.225,22.26
45.24,22.25
45.255,22.245
45.27,22.284
45.285,22.289
45.3,22.241
45.315,22.22
45.33,22.231
45.345,22.215
45.36,22.256
45.375,22.295
45.39,22.287
45.405,22.275
45.42,22.25
45.435,22.224
45.45,22.255
45.465,22.256
45.48,22.28
45.495,22.206
45.51,22.199
45.525,22.192
45.54,22.137
45.555,22.174
45.57,22.182
45.585,22.169
45.6,22.152
45.615,22.131
45.63,22.163
45.645,22.145
45.66,22.139
45.675,22.113
45.69,22.146
45.705,22.129
45.72,22.143
45.735,22.143
45.75,22.126
45.765,22.077
45.78,22.1
45.795,22.161
45.81,22.156
45.825,22.122
45.84,22.078
45.855,22.084
45.87,22.086
45.885,22.073
45.9,22.063
45.915,22.078
45.93,22.116
45.945,22.119
45.96,22.102
45.975,22.099
45.99,22.081
46.005,22.049
46.02,22.066
46.035,22.07
46.05,22.085
46.065,22.052
46.08,22.007
46.095,22.009
46.11,22.039
46.125,22.036
46.14,22.031
46.155,22.016
46.17,22.011
46.185,22.018
46.2,22.017
46.215,22.043
46.23,22.058
46.245,22.026
46.26,21.987
46.275,21.966
46.29,21.923
46.305,21.918
46.32,21.976
46.335,21.979
46.35,21.934
46.365,21.966
46.38,21.904
46.395,21.882
46.41,21.889
46.425,21.921
46.44,21.963
46.455,21.952
46.47,21.953
46.485,21.952
46.5,21.948
46.515,21.936
46.53,21.892
46.545,21.918
46.56,21.93
46.575,21.919
46.59,21.898
46.605,21.884
46.62,21.882
46.635,21.891
46.65,21.936
46.665,21.905
46.68,21.879
46.695,21.896
46.71,21.898
46.725,21.811
46.74,21.836
46.755,21.876
46.77,21.878
46.785,21.862
46.8,21.872
46.815,21.884
46.83,21.898
46.845,21.909
46.86,21.878
46.875,21.856
46.89,21.851
46.905,21.825
46.92,21.837
46.935,21.844
46.95,21.869
46.965,21.872
46.98,21.846
46.995,21.862
47.01,21.851
47.025,21.839
47.04,21.815
47.055,21.818
47.07,21.813
47.085,21.787
47.1,21.799
47.115,21.826
47.13,21.865
47.145,21.867
47.16,21.848
47.175,21.812
47.19,21.753
47.205,21.781
47.22,21.786
47.235,21.762
47.25,21.752
47.265,21.813
47.28,21.844
47.295,21.814
47.31,21.799
47.325,21.787
47.34,21.808
47.355,21.788
47.37,21.758
47.385,21.745
47.4,21.772
47.415,21.762
47.43,21.735
47.445,21.737
47.46,21.714
47.475,21.769
47.49,21.776
47.505,21.757
47.52,21.758
47.535,21.721
47.55,21.692
47.565,21.735
47.58,21.721
47.595,21.69
47.61,21.687
47.625,21.658
47.64,21.631
47.655,21.627
47.67,21.635
47.685,21.669
47.7,21.689
47.715,21.628
47.73,21.562
47.745,21.609
47.76,21.65
47.775,21.611
47.79,21.578
47.805,21.57
47.82,21.563
47.835,21.538
47.85,21.537
47.865,21.58
47.88,21.597
47.895,21.609
47.91,21.589
47.925,21.566
47.94,21.537
47.955,21.526
47.97,21.543
47.985,21.545
48,21.502
48.015,21.526
48.03,21.547
48.045,21.553
48.06,21.576
48.075,21.538
48.09,21.54
48.105,21.596
48.12,21.609
48.135,21.554
48.15,21.511
48.165,21.491
48.18,21.524
48.195,21.522
48.21,21.469
48.225,21.503
48.24,21.496
48.255,21.481
48.27,21.474
48.285,21.49
48.3,21.511
48.315,21.486
48.33,21.445
48.345,21.425
48.36,21.423
48.375,21.454
48.39,21.459
48.405,21.421
48.42,21.425
48.435,21.377
48.45,21.413
48.465,21.393
48.48,21.346
48.495,21.383
48.51,21.455
48.525,21.426
48.54,21.41
48.555,21.432
48.57,21.408
48.585,21.412
48.6,21.43
48.615,21.409
48.63,21.356
48.645,21.353
48.66,21.384
48.675,21.394
48.69,21.379
48.705,21.376
48.72,21.358
48.735,21.326
48.75,21.345
48.765,21.392
48.78,21.348
48.795,21.336
48.81,21.35
48.825,21.355
48.84,21.39
48.855,21.38
48.87,21.37
48.885,21.343
48.9,21.331
48.915,21.313
48.93,21.295
48.945,21.273
48.96,21.284
48.975,21.331
48.99,21.336
49.005,21.33
49.02,21.294
49.035,21.283
49.05,21.264
49.065,21.265
49.08,21.267
49.095,21.258
49.11,21.271
49.125,21.301
49.14,21.305
49.155,21.275
49.17,21.26
49.185,21.204
49.2,21.246
49.215,21.258
49.23,21.239
49.245,21.214
49.26,21.211
49.275,21.242
49.29,21.257
49.305,21.203
49.32,21.217
49.335,21.229
49.35,21.2
49.365,21.207
49.38,21.241
49.395,21.223
49.41,21.194
49.425,21.219
49.44,21.233
49.455,21.199
49.47,21.168
49.485,21.128
49.5,21.144
49.515,21.144
49.53,21.098
49.545,21.12
49.56,21.142
49.575,21.156
49.59,21.147
49.605,21.185
49.62,21.195
49.635,21.133
49.65,21.15
49.665,21.158
49.68,21.168
49.695,21.15
49.71,21.135
49.725,21.133
49.74,21.087
49.755,21.085
49.77,21.102
49.785,21.133
49.8,21.081
49.815,21.077
49.83,21.086
49.845,21.09
49.86,21.084
49.875,21.075
49.89,21.099
49.905,21.055
49.92,21.046
49.935,21.03
49.95,21.043
49.965,21.037
49.98,21.126
49.995,21.104
50.01,21.052
50.025,21.034
50.04,21.028
50.055,21.033
50.07,21.05
50.085,21.035
50.1,21.065
50.115,21.048
50.13,21.037
50.145,21.021
50.16,21.005
50.175,21.04
50.19,21.039
50.205,21.021
50.22,21.017
50.235,21.013
50.25,21.013
50.265,20.981
50.28,20.969
50.295,20.982
50.31,20.918
50.325,20.965
50.34,20.99
50.355,20.971
50.37,21.02
50.385,20.992
50.4,20.935
50.415,20.925
50.43,20.918
50.445,20.908
50.46,20.938
50.475,20.925
50.49,20.956
50.505,20.96
50.52,20.945
50.535,20.941
50.55,20.934
50.565,20.922
50.58,20.904
50.595,20.934
50.61,20.939
50.625,20.935
50.64,20.923
50.655,20.89
50.67,20.907
50.685,20.91
50.7,20.912
50.715,20.931
50.73,20.905
50.745,20.884
50.76,20.886
50.775,20.874
50.79,20.905
50.805,20.918
50.82,20.879
50.835,20.899
50.85,20.884
50.865,20.887
50.88,20.857
50.895,20.856
50.91,20.885
50.925,20.9
50.94,20.859
50.955,20.853
50.97,20.85
50.985,20.843
51,20.849
51.015,20.848
51.03,20.866
51.045,20.859
51.06,20.864
51.075,20.854
51.09,20.802
51.105,20.856
51.12,20.883
51.135,20.797
51.15,20.819
51.165,20.828
51.18,20.782
51.195,20.807
51.21,20.785
51.225,20.804
51.24,20.838
51.255,20.833
51.27,20.778
51.285,20.724
51.3,20.757
51.315,20.793
51.33,20.743
51.345,20.717
51.36,20.775
51.375,20.787
51.39,20.788
51.405,20.789
51.42,20.74
51.435,20.738
51.45,20.754
51.465,20.763
51.48,20.692
51.495,20.692
51.51,20.718
51.525,20.734
51.54,20.744
51.555,20.717
51.57,20.734
51.585,20.768
51.6,20.697
51.615,20.693
51.63,20.688
51.645,20.735
51.66,20.696
51.675,20.732
51.69,20.737
51.705,20.669
51.72,20.66
51.735,20.679
51.75,20.718
51.765,20.73
51.78,20.68
51.795,20.664
51.81,20.656
51.825,20.659
51.84,20.691
51.855,20.682
51.87,20.666
51.885,20.67
51.9,20.668
51.915,20.69
51.93,20.658
51.945,20.661
51.96,20.7
51.975,20.692
51.99,20.604
52.005,20.609
52.02,20.621
52.035,20.619
52.05,20.601
52.065,20.632
52.08,20.617
52.095,20.604
52.11,20.641
52.125,20.635
52.14,20.607
52.155,20.614
52.17,20.64
52.185,20.611
52.2,20.58
52.215,20.586
52.23,20.578
52.245,20.6
52.26,20.602
52.275,20.63
52.29,20.655
52.305,20.593
52.32,20.588
52.335,20.582
52.35,20.585
52.365,20.614
52.38,20.604
52.395,20.62
52.41,20.601
52.425,20.609
52.44,20.6
52.455,20.591
52.47,20.594
52.485,20.582
52.5,20.604
52.515,20.606
52.53,20.556
52.545,20.571
52.56,20.583
52.575,20.561
52.59,20.585
52.605,20.533
52.62,20.508
52.635,20.576
52.65,20.607
52.665,20.583
52.68,20.586
52.695,20.561
52.71,20.556
52.725,20.575
52.74,20.609
52.755,20.584
52.77,20.58
52.785,20.575
52.8,20.585
52.815,20.612
52.83,20.574
52.845,20.579
52.86,20.581
52.875,20.592
52.89,20.626
52.905,20.665
52.92,20.636
52.935,20.599
52.95,20.656
52.965,20.661
52.98,20.664
52.995,20.718
53.01,20.724
53.025,20.729
53.04,20.725
53.055,20.74
53.07,20.812
53.085,20.846
53.1,20.864
53.115,20.888
53.13,20.947
53.145,20.97
53.16,20.978
53.175,20.948
53.19,21.007
53.205,21.044
53.22,21.072
53.235,21.119
53.25,21.145
53.265,21.16
53.28,21.181
53.295,21.229
53.31,21.255
53.325,21.187
53.34,21.231
53.355,21.332
53.37,21.323
53.385,21.319
53.4,21.301
53.415,21.33
53.43,21.352
53.445,21.328
53.46,21.345
53.475,21.388
53.49,21.356
53.505,21.269
53.52,21.237
53.535,21.279
53.55,21.293
53.565,21.274
53.58,21.225
53.595,21.229
53.61,21.212
53.625,21.157
53.64,21.122
53.655,21.093
53.67,21.077
53.685,21.065
53.7,21.02
53.715,20.978
53.73,20.987
53.745,20.946
53.76,20.9
53.775,20.847
53.79,20.822
53.805,20.812
53.82,20.765
53.835,20.721
53.85,20.72
53.865,20.682
53.88,20.676
53.895,20.647
53.91,20.607
53.925,20.552
53.94,20.536
53.955,20.533
53.97,20.508
53.985,20.459
54,20.431
54.015,20.394
54.03,20.362
54.045,20.352
54.06,20.39
54.075,20.383
54.09,20.402
54.105,20.367
54.12,20.295
54.135,20.301
54.15,20.301
54.165,20.302
54.18,20.317
54.195,20.287
54.21,20.262
54.225,20.261
54.24,20.242
54.255,20.189
54.27,20.166
54.285,20.21
54.3,20.287
54.315,20.264
54.33,20.238
54.345,20.179
54.36,20.17
54.375,20.196
54.39,20.179
54.405,20.242
54.42,20.259
54.435,20.235
54.45,20.235
54.465,20.191
54.48,20.154
54.495,20.152
54.51,20.145
54.525,20.133
54.54,20.125
54.555,20.102
54.57,20.117
54.585,20.123
54.6,20.131
54.615,20.136
54.63,20.15
54.645,20.125
54.66,20.126
54.675,20.096
54.69,20.081
54.705,20.099
54.72,20.117
54.735,20.139
54.75,20.125
54.765,20.08
54.78,20.098
54.795,20.096
54.81,20.052
54.825,20.071
54.84,20.079
54.855,20.046
54.87,20.027
54.885,20.064
54.9,20.115
54.915,20.079
54.93,20.077
54.945,20.062
54.96,20.077
54.975,20.065
54.99,20.036
55.005,20.038
55.02,20.086
55.035,20.1
55.05,20.083
55.065,20.039
55.08,19.997
55.095,19.996
55.11,20.013
55.125,19.992
55.14,20.011
55.155,20.015
55.17,20.02
55.185,20.037
55.2,20.023
55.215,19.991
55.23,19.979
55.245,19.983
55.26,19.992
55.275,20.008
55.29,20.011
55.305,20.025
55.32,20.054
55.335,20.029
55.35,20.002
55.365,20.031
55.38,19.997
55.395,19.974
55.41,20.037
55.425,20.047
55.44,20.046
55.455,20.006
55.47,19.986
55.485,20.003
55.5,20.02
55.515,20.017
55.53,19.961
55.545,19.939
55.56,19.935
55.575,19.939
55.59,19.955
55.605,19.969
55.62,19.975
55.635,19.948
55.65,19.938
55.665,19.977
55.68,19.942
55.695,19.983
55.71,19.998
55.725,19.923
55.74,19.908
55.755,19.933
55.77,19.986
55.785,19.984
55.8,19.991
55.815,19.99
55.83,19.932
55.845,19.974
55.86,20.007
55.875,19.996
55.89,20.011
55.905,19.978
55.92,19.989
55.935,19.988
55.95,19.969
55.965,19.976
55.98,20.038
55.995,20.021
56.01,19.975
56.025,19.993
56.04,19.976
56.055,19.999
56.07,19.993
56.085,19.992
56.1,20.019
56.115,20.043
56.13,20.001
56.145,19.969
56.16,19.957
56.175,19.961
56.19,20.012
56.205,20.008
56.22,20.007
56.235,20.021
56.25,20.04
56.265,20.055
56.28,20.018
56.295,20.031
56.31,20.115
56.325,20.156
56.34,20.169
56.355,20.154
56.37,20.171
56.385,20.197
56.4,20.265
56.415,20.302
56.43,20.314
56.445,20.35
56.46,20.368
56.475,20.417
56.49,20.459
56.505,20.533
56.52,20.6
56.535,20.629
56.55,20.71
56.565,20.844
56.58,20.876
56.595,20.914
56.61,21.021
56.625,21.076
56.64,21.135
56.655,21.25
56.67,21.344
56.685,21.422
56.7,21.502
56.715,21.616
56.73,21.721
56.745,21.81
56.76,21.906
56.775,21.934
56.79,21.994
56.805,22.104
56.82,22.209
56.835,22.331
56.85,22.358
56.865,22.398
56.88,22.5
56.895,22.567
56.91,22.564
56.925,22.581
56.94,22.644
56.955,22.676
56.97,22.701
56.985,22.695
57,22.694
57.015,22.731
57.03,22.696
57.045,22.675
57.06,22.628
57.075,22.58
57.09,22.563
57.105,22.581
57.12,22.559
57.135,22.465
57.15,22.367
57.165,22.284
57.18,22.215
57.195,22.152
57.21,22.075
57.225,21.997
57.24,21.882
57.255,21.778
57.27,21.7
57.285,21.632
57.3,21.536
57.315,21.441
57.33,21.352
57.345,21.295
57.36,21.186
57.375,21.045
57.39,20.959
57.405,20.899
57.42,20.778
57.435,20.701
57.45,20.652
57.465,20.571
57.48,20.541
57.495,20.461
57.51,20.336
57.525,20.31
57.54,20.277
57.555,20.194
57.57,20.123
57.585,20.047
57.6,20.032
57.615,20.006
57.63,19.986
57.645,19.956
57.66,19.893
57.675,19.87
57.69,19.851
57.705,19.81
57.72,19.774
57.735,19.75
57.75,19.726
57.765,19.693
57.78,19.693
57.795,19.715
57.81,19.702
57.825,19.66
57.84,19.601
57.855,19.62
57.87,19.652
57.885,19.651
57.9,19.627
57.915,19.57
57.93,19.598
57.945,19.577
57.96,19.563
57.975,19.58
57.99,19.586
58.005,19.558
58.02,19.561
58.035,19.562
58.05,19.553
58.065,19.558
58.08,19.57
58.095,19.532
58.11,19.507
58.125,19.492
58.14,19.509
58.155,19.493
58.17,19.503
58.185,19.471
58.2,19.455
58.215,19.495
58.23,19.512
58.245,19.52
58.26,19.482
58.275,19.445
58.29,19.461
58.305,19.449
58.32,19.426
58.335,19.449
58.35,19.446
58.365,19.41
58.38,19.414
58.395,19.351
58.41,19.32
58.425,19.365
58.44,19.429
58.455,19.426
58.47,19.392
58.485,19.392
58.5,19.384
58.515,19.36
58.53,19.365
58.545,19.371
58.56,19.34
58.575,19.362
58.59,19.365
58.605,19.334
58.62,19.34
58.635,19.356
58.65,19.357
58.665,19.313
58.68,19.308
58.695,19.313
58.71,19.306
58.725,19.331
58.74,19.334
58.755,19.302
58.77,19.288
58.785,19.309
58.8,19.3
58.815,19.253
58.83,19.259
58.845,19.259
58.86,19.235
58.875,19.272
58.89,19.297
58.905,19.261
58.92,19.267
58.935,19.312
58.95,19.272
58.965,19.289
58.98,19.311
58.995,19.251
59.01,19.249
59.025,19.214
59.04,19.156
59.055,19.232
59.07,19.236
59.085,19.224
59.1,19.237
59.115,19.238
59.13,19.255
59.145,19.244
59.16,19.19
59.175,19.166
59.19,19.183
59.205,19.207
59.22,19.208
59.235,19.183
59.25,19.177
59.265,19.226
59.28,19.239
59.295,19.211
59.31,19.181
59.325,19.18
59.34,19.155
59.355,19.18
59.37,19.211
59.385,19.195
59.4,19.188
59.415,19.162
59.43,19.184
59.445,19.207
59.46,19.197
59.475,19.157
59.49,19.111
59.505,19.143
59.52,19.159
59.535,19.157
59.55,19.127
59.565,19.1
59.58,19.105
59.595,19.089
59.61,19.124
59.625,19.118
59.64,19.122
59.655,19.125
59.67,19.171
59.685,19.146
59.7,19.116
59.715,19.082
59.73,19.068
59.745,19.103
59.76,19.124
59.775,19.084
59.79,19.076
59.805,19.055
59.82,19.034
59.835,19.023
59.85,19.009
59.865,19.017
59.88,19.062
59.895,19.09
59.91,19.101
59.925,19.102
59.94,19.099
59.955,19.111
59.97,19.069
59.985,19.04
60,19.028
60.015,19.052
60.03,19.082
60.045,19.061
60.06,19.097
60.075,19.093
60.09,19.026
60.105,19.013
60.12,19.057
60.135,19.044
60.15,19.054
60.165,19.025
60.18,19.002
60.195,18.987
60.21,18.986
60.225,18.977
60.24,19.057
60.255,19.091
60.27,19.028
60.285,19.002
60.3,19.011
60.315,19.04
60.33,19.029
60.345,19.034
60.36,19.008
60.375,18.978
60.39,18.97
60.405,18.983
60.42,19.022
60.435,19.009
60.45,19.017
60.465,18.98
60.48,18.965
60.495,18.958
60.51,18.978
60.525,18.981
60.54,18.985
60.555,18.994
60.57,18.951
60.585,18.945
60.6,18.953
60.615,18.913
60.63,18.921
60.645,18.926
60.66,18.935
60.675,18.942
60.69,18.931
60.705,18.972
60.72,18.976
60.735,18.931
60.75,18.927
60.765,19.001
60.78,18.985
60.795,18.961
60.81,18.955
60.825,18.936
60.84,18.906
60.855,18.933
60.87,18.952
60.885,18.932
60.9,18.968
60.915,18.949
60.93,18.937
60.945,18.951
60.96,18.933
60.975,18.894
60.99,18.876
61.005,18.9
61.02,18.888
61.035,18.916
61.05,18.953
61.065,18.949
61.08,18.918
61.095,18.894
61.11,18.907
61.125,18.92
61.14,18.886
61.155,18.902
61.17,18.89
61.185,18.862
61.2,18.893
61.215,18.905
61.23,18.894
61.245,18.912
61.26,18.959
61.275,18.936
61.29,18.899
61.305,18.878
61.32,18.876
61.335,18.899
61.35,18.943
61.365,18.91
61.38,18.907
61.395,18.937
61.41,18.904
61.425,18.871
61.44,18.9
61.455,18.915
61.47,18.92
61.485,18.882
61.5,18.871
61.515,18.904
61.53,18.919
61.545,18.939
61.56,18.946
61.575,18.919
61.59,18.945
61.605,18.955
61.62,18.914
61.635,18.89
61.65,18.898
61.665,18.97
61.68,18.971
61.695,18.953
61.71,18.949
61.725,18.901
61.74,18.9
61.755,18.925
61.77,18.952
61.785,18.969
61.8,18.985
61.815,18.995
61.83,18.999
61.845,19.048
61.86,19.055
61.875,19.003
61.89,19.07
61.905,19.115
61.92,19.131
61.935,19.162
61.95,19.181
61.965,19.196
61.98,19.22
61.995,19.318
62.01,19.346
62.025,19.4
62.04,19.481
62.055,19.546
62.07,19.594
62.085,19.67
62.1,19.709
62.115,19.794
62.13,19.908
62.145,19.973
62.16,20.047
62.175,20.16
62.19,20.244
62.205,20.332
62.22,20.466
62.235,20.578
62.25,20.688
62.265,20.821
62.28,20.972
62.295,21.051
62.31,21.119
62.325,21.315
62.34,21.427
62.355,21.507
62.37,21.624
62.385,21.765
62.4,21.871
62.415,21.944
62.43,22.037
62.445,22.112
62.46,22.217
62.475,22.291
62.49,22.394
62.505,22.43
62.52,22.472
62.535,22.544
62.55,22.607
62.565,22.601
62.58,22.599
62.595,22.619
62.61,22.636
62.625,22.659
62.64,22.606
62.655,22.548
62.67,22.494
62.685,22.457
62.7,22.442
62.715,22.332
62.73,22.256
62.745,22.204
62.76,22.122
62.775,22.029
62.79,21.935
62.805,21.834
62.82,21.717
62.835,21.621
62.85,21.467
62.865,21.367
62.88,21.306
62.895,21.177
62.91,21.05
62.925,20.951
62.94,20.804
62.955,20.703
62.97,20.619
62.985,20.504
63,20.379
63.015,20.232
63.03,20.142
63.045,20.081
63.06,19.983
63.075,19.928
63.09,19.849
63.105,19.718
63.12,19.636
63.135,19.529
63.15,19.479
63.165,19.429
63.18,19.345
63.195,19.311
63.21,19.226
63.225,19.176
63.24,19.122
63.255,19.096
63.27,19.034
63.285,18.957
63.3,18.914
63.315,18.894
63.33,18.881
63.345,18.871
63.36,18.769
63.375,18.738
63.39,18.741
63.405,18.743
63.42,18.727
63.435,18.685
63.45,18.63
63.465,18.641
63.48,18.637
63.495,18.597
63.51,18.603
63.525,18.578
63.54,18.577
63.555,18.599
63.57,18.582
63.585,18.564
63.6,18.541
63.615,18.506
63.63,18.468
63.645,18.477
63.66,18.55
63.675,18.553
63.69,18.516
63.705,18.52
63.72,18.507
63.735,18.472
63.75,18.495
63.765,18.536
63.78,18.494
63.795,18.438
63.81,18.432
63.825,18.427
63.84,18.441
63.855,18.439
63.87,18.421
63.885,18.423
63.9,18.382
63.915,18.393
63.93,18.412
63.945,18.394
63.96,18.412
63.975,18.386
63.99,18.383
64.005,18.371
64.02,18.374
64.035,18.37
64.05,18.35
64.065,18.375
64.08,18.36
64.095,18.323
64.11,18.33
64.125,18.345
64.14,18.331
64.155,18.322
64.17,18.341
64.185,18.317
64.2,18.331
64.215,18.326
64.23,18.332
64.245,18.306
64.26,18.31
64.275,18.33
64.29,18.322
64.305,18.281
64.32,18.287
64.335,18.285
64.35,18.266
64.365,18.251
64.38,18.28
64.395,18.276
64.41,18.276
64.425,18.253
64.44,18.232
64.455,18.23
64.47,18.236
64.485,18.273
64.5,18.249
64.515,18.231
64.53,18.252
64.545,18.21
64.56,18.215
64.575,18.215
64.59,18.211
64.605,18.217
64.62,18.214
64.635,18.222
64.65,18.208
64.665,18.177
64.68,18.196
64.695,18.261
64.71,18.238
64.725,18.187
64.74,18.215
64.755,18.223
64.77,18.184
64.785,18.13
64.8,18.146
64.815,18.166
64.83,18.144
64.845,18.179
64.86,18.201
64.875,18.183
64.89,18.168
64.905,18.179
64.92,18.148
64.935,18.12
64.95,18.115
64.965,18.107
64.98,18.121
64.995,18.152
65.01,18.166
65.025,18.158
65.04,18.162
65.055,18.133
65.07,18.125
65.085,18.122
65.1,18.116
65.115,18.098
65.13,18.109
65.145,18.118
65.16,18.111
65.175,18.131
65.19,18.134
65.205,18.136
65.22,18.12
65.235,18.077
65.25,18.057
65.265,18.1
65.28,18.107
65.295,18.124
65.31,18.117
65.325,18.104
65.34,18.121
65.355,18.097
65.37,18.096
65.385,18.146
65.4,18.109
65.415,18.098
65.43,18.117
65.445,18.083
65.46,18.092
65.475,18.112
65.49,18.091
65.505,18.101
65.52,18.115
65.535,18.14
65.55,18.093
65.565,18.094
65.58,18.102
65.595,18.07
65.61,18.018
65.625,18.025
65.64,18.065
65.655,18.058
65.67,18.056
65.685,18.069
65.7,18.116
65.715,18.086
65.73,18.031
65.745,18.08
65.76,18.092
65.775,18.061
65.79,18.086
65.805,18.104
65.82,18.065
65.835,18.029
65.85,18.043
65.865,18.065
65.88,18.042
65.895,18
65.91,18.011
65.925,18.032
65.94,18.052
65.955,18.052
65.97,18.051
65.985,18.033
66,17.966
66.015,18.013
66.03,18.016
66.045,18.011
66.06,17.987
66.075,17.966
66.09,17.989
66.105,17.947
66.12,17.891
66.135,17.954
66.15,18.018
66.165,18.013
66.18,17.961
66.195,17.908
66.21,17.947
66.225,17.995
66.24,17.973
66.255,17.94
66.27,17.924
66.285,17.931
66.3,17.942
66.315,17.917
66.33,17.937
66.345,17.927
66.36,17.921
66.375,17.868
66.39,17.873
66.405,17.881
66.42,17.884
66.435,17.904
66.45,17.892
66.465,17.894
66.48,17.877
66.495,17.883
66.51,17.869
66.525,17.854
66.54,17.859
66.555,17.847
66.57,17.848
66.585,17.865
66.6,17.841
66.615,17.813
66.63,17.823
66.645,17.818
66.66,17.845
66.675,17.818
66.69,17.812
66.705,17.807
66.72,17.817
66.735,17.859
66.75,17.836
66.765,17.828
66.78,17.852
66.795,17.805
66.81,17.796
66.825,17.824
66.84,17.821
66.855,17.807
66.87,17.794
66.885,17.828
66.9,17.83
66.915,17.804
66.93,17.822
66.945,17.81
66.96,17.811
66.975,17.814
66.99,17.801
67.005,17.781
67.02,17.797
67.035,17.825
67.05,17.809
67.065,17.799
67.08,17.791
67.095,17.776
67.11,17.764
67.125,17.729
67.14,17.742
67.155,17.787
67.17,17.784
67.185,17.807
67.2,17.769
67.215,17.735
67.23,17.724
67.245,17.748
67.26,17.728
67.275,17.762
67.29,17.744
67.305,17.68
67.32,17.688
67.335,17.723
67.35,17.713
67.365,17.687
67.38,17.705
67.395,17.701
67.41,17.715
67.425,17.697
67.44,17.718
67.455,17.696
67.47,17.685
67.485,17.692
67.5,17.707
67.515,17.689
67.53,17.702
67.545,17.717
67.56,17.702
67.575,17.721
67.59,17.703
67.605,17.667
67.62,17.677
67.635,17.679
67.65,17.699
67.665,17.714
67.68,17.71
67.695,17.656
67.71,17.68
67.725,17.686
67.74,17.709
67.755,17.674
67.77,17.636
67.785,17.634
67.8,17.663
67.815,17.678
67.83,17.683
67.845,17.687
67.86,17.654
67.875,17.657
67.89,17.643
67.905,17.643
67.92,17.627
67.935,17.612
67.95,17.639
67.965,17.645
67.98,17.616
67.995,17.591
68.01,17.632
68.025,17.656
68.04,17.65
68.055,17.609
68.07,17.62
68.085,17.651
68.1,17.594
68.115,17.583
68.13,17.612
68.145,17.645
68.16,17.627
68.175,17.608
68.19,17.586
68.205,17.558
68.22,17.573
68.235,17.615
68.25,17.636
68.265,17.581
68.28,17.531
68.295,17.552
68.31,17.598
68.325,17.588
68.34,17.544
68.355,17.572
68.37,17.562
68.385,17.55
68.4,17.585
68.415,17.591
68.43,17.551
68.445,17.531
68.46,17.564
68.475,17.554
68.49,17.544
68.505,17.547
68.52,17.519
68.535,17.542
68.55,17.567
68.565,17.549
68.58,17.523
68.595,17.548
68.61,17.527
68.625,17.473
68.64,17.463
68.655,17.483
68.67,17.501
68.685,17.523
68.7,17.537
68.715,17.514
68.73,17.511
68.745,17.491
68.76,17.5
68.775,17.481
68.79,17.467
68.805,17.515
68.82,17.519
68.835,17.489
68.85,17.52
68.865,17.519
68.88,17.519
68.895,17.534
68.91,17.48
68.925,17.416
68.94,17.451
68.955,17.48
68.97,17.463
68.985,17.448
69,17.424
69.015,17.432
69.03,17.463
69.045,17.469
69.06,17.497
69.075,17.471
69.09,17.439
69.105,17.425
69.12,17.436
69.135,17.479
69.15,17.474
69.165,17.432
69.18,17.423
69.195,17.453
69.21,17.44
69.225,17.438
69.24,17.402
69.255,17.4
69.27,17.428
69.285,17.479
69.3,17.484
69.315,17.433
69.33,17.391
69.345,17.397
69.36,17.401
69.375,17.37
69.39,17.379
69.405,17.4
69.42,17.387
69.435,17.368
69.45,17.379
69.465,17.401
69.48,17.37
69.495,17.362
69.51,17.361
69.525,17.375
69.54,17.389
69.555,17.422
69.57,17.419
69.585,17.443
69.6,17.397
69.615,17.375
69.63,17.375
69.645,17.367
69.66,17.383
69.675,17.391
69.69,17.398
69.705,17.401
69.72,17.37
69.735,17.348
69.75,17.359
69.765,17.335
69.78,17.333
69.795,17.382
69.81,17.343
69.825,17.343
69.84,17.364
69.855,17.348
69.87,17.319
69.885,17.332
69.9,17.336
69.915,17.26
69.93,17.25
69.945,17.283
69.96,17.306
69.975,17.322
69.99,17.333
70.005,17.31
70.02,17.289
70.035,17.309
70.05,17.311
70.065,17.289
70.08,17.295
70.095,17.325
70.11,17.359
70.125,17.32
70.14,17.266
70.155,17.284
70.17,17.309
70.185,17.283
70.2,17.277
70.215,17.312
70.23,17.295
70.245,17.262
70.26,17.293
70.275,17.279
70.29,17.279
70.305,17.295
70.32,17.295
70.335,17.307
70.35,17.283
70.365,17.291
70.38,17.28
70.395,17.272
70.41,17.286
70.425,17.312
70.44,17.329
70.455,17.369
70.47,17.332
70.485,17.322
70.5,17.323
70.515,17.315
70.53,17.315
70.545,17.297
70.56,17.29
70.575,17.315
70.59,17.314
70.605,17.329
70.62,17.328
70.635,17.323
70.65,17.35
70.665,17.378
70.68,17.375
70.695,17.392
70.71,17.374
70.725,17.364
70.74,17.418
70.755,17.416
70.77,17.415
70.785,17.381
70.8,17.377
70.815,17.428
70.83,17.427
70.845,17.407
70.86,17.409
70.875,17.397
70.89,17.401
70.905,17.423
70.92,17.455
70.935,17.473
70.95,17.434
70.965,17.427
70.98,17.428
70.995,17.408
71.01,17.399
71.025,17.414
71.04,17.4
71.055,17.429
71.07,17.447
71.085,17.43
71.1,17.394
71.115,17.393
71.13,17.41
71.145,17.402
71.16,17.412
71.175,17.406
71.19,17.38
71.205,17.348
71.22,17.362
71.235,17.361
71.25,17.361
71.265,17.347
71.28,17.32
71.295,17.312
71.31,17.301
71.325,17.29
71.34,17.312
71.355,17.294
71.37,17.267
71.385,17.265
71.4,17.274
71.415,17.271
71.43,17.255
71.445,17.232
71.46,17.223
71.475,17.24
71.49,17.191
71.505,17.154
71.52,17.158
71.535,17.128
71.55,17.128
71.565,17.143
71.58,17.131
71.595,17.137
71.61,17.09
71.625,17.106
71.64,17.127
71.655,17.077
71.67,17.087
71.685,17.121
71.7,17.088
71.715,17.052
71.73,17.058
71.745,17.097
71.76,17.069
71.775,17.063
71.79,17.089
71.805,17.059
71.82,17.054
71.835,17.03
71.85,17.042
71.865,17.071
71.88,17.076
71.895,17.038
71.91,17.056
71.925,17.053
71.94,17.063
71.955,17.057
71.97,17.031
71.985,17.032
72,17.015
72.015,17.026
72.03,17.042
72.045,17.02
72.06,17.07
72.075,17.048
72.09,16.993
72.105,16.989
72.12,17.033
72.135,17.061
72.15,17.035
72.165,17.004
72.18,17.011
72.195,17.017
72.21,17.027
72.225,17.036
72.24,17.014
72.255,17.014
72.27,16.986
72.285,16.904
72.3,16.918
72.315,16.988
72.33,17.019
72.345,17.006
72.36,16.963
72.375,16.976
72.39,16.981
72.405,16.982
72.42,17.044
72.435,17.036
72.45,17
72.465,16.987
72.48,16.996
72.495,16.981
72.51,16.991
72.525,16.982
72.54,17.001
72.555,17.011
72.57,17.023
72.585,17.011
72.6,16.979
72.615,16.936
72.63,16.958
72.645,16.959
72.66,16.958
72.675,16.939
72.69,16.949
72.705,16.93
72.72,16.941
72.735,16.971
72.75,16.975
72.765,16.958
72.78,16.922
72.795,16.909
72.81,16.893
72.825,16.919
72.84,16.905
72.855,16.912
72.87,16.914
72.885,16.846
72.9,16.84
72.915,16.886
72.93,16.933
72.945,16.932
72.96,16.894
72.975,16.924
72.99,16.916
73.005,16.921
73.02,16.934
73.035,16.928
73.05,16.925
73.065,16.937
73.08,16.94
73.095,16.918
73.11,16.863
73.125,16.86
73.14,16.918
73.155,16.92
73.17,16.916
73.185,16.926
73.2,16.899
73.215,16.912
73.23,16.933
73.245,16.898
73.26,16.903
73.275,16.951
73.29,16.903
73.305,16.874
73.32,16.899
73.335,16.887
73.35,16.923
73.365,16.937
73.38,16.918
73.395,16.923
73.41,16.95
73.425,16.953
73.44,16.948
73.455,16.939
73.47,16.918
73.485,16.94
73.5,16.973
73.515,16.97
73.53,16.986
73.545,16.994
73.56,16.99
73.575,16.971
73.59,17.002
73.605,17.044
73.62,17.062
73.635,17.084
73.65,17.11
73.665,17.148
73.68,17.13
73.695,17.119
73.71,17.167
73.725,17.204
73.74,17.172
73.755,17.213
73.77,17.273
73.785,17.326
73.8,17.311
73.815,17.247
73.83,17.286
73.845,17.293
73.86,17.306
73.875,17.351
73.89,17.38
73.905,17.413
73.92,17.393
73.935,17.367
73.95,17.373
73.965,17.38
73.98,17.395
73.995,17.378
74.01,17.388
74.025,17.438
74.04,17.443
74.055,17.391
74.07,17.395
74.085,17.384
74.1,17.395
74.115,17.429
74.13,17.422
74.145,17.382
74.16,17.386
74.175,17.414
74.19,17.398
74.205,17.437
74.22,17.409
74.235,17.342
74.25,17.292
74.265,17.3
74.28,17.305
74.295,17.293
74.31,17.284
74.325,17.314
74.34,17.264
74.355,17.227
74.37,17.217
74.385,17.173
74.4,17.146
74.415,17.151
74.43,17.145
74.445,17.123
74.46,17.107
74.475,17.064
74.49,17.034
74.505,17.071
74.52,17.052
74.535,17.032
74.55,17.026
74.565,17.023
74.58,16.995
74.595,16.913
74.61,16.931
74.625,17.003
74.64,17.004
74.655,16.963
74.67,16.926
74.685,16.922
74.7,16.947
74.715,16.937
74.73,16.915
74.745,16.941
74.76,16.958
74.775,16.953
74.79,16.944
74.805,16.923
74.82,16.925
74.835,16.963
74.85,16.96
74.865,16.965
74.88,16.929
74.895,16.907
74.91,16.94
74.925,16.955
74.94,16.941
74.955,16.931
74.97,16.912
74.985,16.924
75,16.885
75.015,16.784
75.03,16.725
75.045,16.666
75.06,16.614
75.075,16.579
75.09,16.525
75.105,16.467
75.12,16.4
75.135,16.36
75.15,16.277
75.165,16.29
75.18,16.246
75.195,16.171
75.21,16.205
75.225,16.275
75.24,16.088
75.255,15.991
75.27,16.071
75.285,16.142
75.3,16.028
75.315,15.947
75.33,15.947
75.345,16.124
