24.99,0
25.005,-0.049
25.02,0.665
25.035,0.422
25.05,-0.018
25.065,0.097
25.08,0.379
25.095,0.651
25.11,0.611
25.125,0.003
25.14,0.019
25.155,0.225
25.17,0.14
25.185,0.156
25.2,0.49
25.215,0.56
25.23,0.18
25.245,0.223
25.26,0.125
25.275,0.043
25.29,-0.026
25.305,0.147
25.32,0.179
25.335,-0.215
25.35,-0.265
25.365,0.098
25.38,0.074
25.395,0.252
25.41,0.47
25.425,0.062
25.44,-0.148
25.455,0.108
25.47,0.222
25.485,0.062
25.5,0.314
25.515,0.455
25.53,0.149
25.545,-0.082
25.56,-0.078
25.575,0.035
25.59,0.039
25.605,0.163
25.62,0.457
25.635,0.559
25.65,0.435
25.665,0.26
25.68,0.425
25.695,0.317
25.71,0.071
25.725,0.096
25.74,0.267
25.755,0.379
25.77,0.474
25.785,0.281
25.8,0.089
25.815,0.158
25.83,0.339
25.845,0.417
25.86,0.376
25.875,0.209
25.89,0.014
25.905,0.017
25.92,0.11
25.935,0.113
25.95,0.227
25.965,0.136
25.98,-0.009
25.995,-0.105
26.01,-0.025
26.025,0.066
26.04,0.121
26.055,0.209
26.07,0.365
26.085,0.192
26.1,0.157
26.115,0.332
26.13,0.187
26.145,0.001
26.16,-0.036
26.175,0.08
26.19,0.133
26.205,0
26.22,0.136
26.235,0.231
26.25,0.115
26.265,0.092
26.28,0.174
26.295,0.078
26.31,0.076
26.325,0.052
26.34,0.139
26.355,0.156
26.37,0.291
26.385,0.257
26.4,0.181
26.415,0.057
26.43,0.098
26.445,0.11
26.46,0.138
26.475,0.24
26.49,0.101
26.505,0.16
26.52,0.196
26.535,0.215
26.55,0.071
26.565,0.116
26.58,0.032
26.595,-0.104
26.61,-0.068
26.625,0.004
26.64,-0.01
26.655,-0.153
26.67,-0.186
26.685,-0.089
26.7,0.138
26.715,0.156
26.73,0.272
26.745,0.252
26.76,0.054
26.775,-0.095
26.79,-0.195
26.805,-0.106
26.82,0.021
26.835,0.03
26.85,0.14
26.865,0.038
26.88,0.013
26.895,-0.016
26.91,0.027
26.925,-0.151
26.94,-0.115
26.955,-0.071
26.97,-0.031
26.985,-0.026
27,-0.067
27.015,-0.074
27.03,-0.125
27.045,-0.024
27.06,0.046
27.075,0.068
27.09,0.051
27.105,0.131
27.12,-0.058
27.135,-0.043
27.15,0.02
27.165,-0.022
27.18,-0.114
27.195,-0.116
27.21,-0.123
27.225,-0.064
27.24,-0.03
27.255,0.02
27.27,0.1
27.285,0.043
27.3,-0.203
27.315,-0.092
27.33,0.036
27.345,-0.008
27.36,-0.183
27.375,-0.225
27.39,-0.234
27.405,-0.114
27.42,0.048
27.435,0.063
27.45,-0.013
27.465,-0.148
27.48,-0.139
27.495,0.025
27.51,0.024
27.525,0.021
27.54,-0.054
27.555,-0.031
27.57,-0.033
27.585,-0.057
27.6,0.031
27.615,-0.148
27.63,-0.178
27.645,-0.186
27.66,0.084
27.675,-0.1
27.69,-0.262
27.705,-0.127
27.72,0.027
27.735,-0.018
27.75,0.067
27.765,-0.064
27.78,-0.217
27.795,-0.039
27.81,0.019
27.825,-0.119
27.84,-0.075
27.855,0.024
27.87,-0.008
27.885,-0.111
27.9,-0.22
27.915,-0.082
27.93,-0.103
27.945,-0.248
27.96,-0.074
27.975,-0.048
27.99,-0.096
28.005,-0.071
28.02,0.087
28.035,-0.019
28.05,-0.156
28.065,-0.189
28.08,-0.114
28.095,-0.079
28.11,-0.153
28.125,-0.21
28.14,-0.197
28.155,-0.119
28.17,-0.026
28.185,-0.083
28.2,-0.142
28.215,-0.125
28.23,-0.166
28.245,-0.159
28.26,-0.058
28.275,0.036
28.29,-0.028
28.305,-0.068
28.32,-0.151
28.335,-0.24
28.35,-0.143
28.365,0.06
28.38,-0.042
28.395,-0.216
28.41,-0.208
28.425,-0.101
28.44,-0.046
28.455,0.103
28.47,-0.01
28.485,-0.058
28.5,-0.012
28.515,-0.057
28.53,-0.147
28.545,-0.114
28.56,-0.022
28.575,-0.108
28.59,-0.262
28.605,-0.213
28.62,-0.151
28.635,-0.222
28.65,-0.186
28.665,-0.114
28.68,-0.117
28.695,-0.246
28.71,-0.12
28.725,0.021
28.74,-0.005
28.755,-0.114
28.77,-0.192
28.785,-0.232
28.8,-0.259
28.815,-0.217
28.83,-0.149
28.845,-0.128
28.86,-0.21
28.875,-0.132
28.89,-0.042
28.905,-0.138
28.92,-0.189
28.935,-0.188
28.95,-0.174
28.965,0.014
28.98,0.069
28.995,0.066
29.01,-0.09
29.025,-0.094
29.04,-0.074
29.055,0.009
29.07,0.037
29.085,0.044
29.1,-0.063
29.115,-0.077
29.13,0.021
29.145,-0.065
29.16,-0.148
29.175,-0.047
29.19,-0.086
29.205,0.025
29.22,0.025
29.235,-0.111
29.25,-0.04
29.265,-0.12
29.28,-0.016
29.295,-0.065
29.31,-0.142
29.325,-0.011
29.34,-0.065
29.355,-0.098
29.37,-0.199
29.385,-0.246
29.4,-0.146
29.415,-0.075
29.43,-0.183
29.445,-0.159
29.46,-0.006
29.475,0.068
29.49,0.115
29.505,0.055
29.52,0.138
29.535,0.313
29.55,0.269
29.565,0.205
29.58,0.184
29.595,0.097
29.61,0.24
29.625,0.401
29.64,0.367
29.655,0.545
29.67,0.739
29.685,0.698
29.7,0.651
29.715,0.616
29.73,0.632
29.745,0.859
29.76,0.74
29.775,0.807
29.79,0.943
29.805,1.177
29.82,1.299
29.835,1.468
29.85,1.603
29.865,1.751
29.88,1.749
29.895,1.723
29.91,1.855
29.925,1.838
29.94,1.974
29.955,2.342
29.97,2.501
29.985,2.401
30,2.369
30.015,2.448
30.03,2.424
30.045,2.402
30.06,2.462
30.075,2.693
30.09,2.807
30.105,2.686
30.12,2.841
30.135,2.853
30.15,2.895
30.165,2.94
30.18,2.863
30.195,2.796
30.21,2.772
30.225,2.772
30.24,2.718
30.255,2.478
30.27,2.464
30.285,2.494
30.3,2.31
30.315,2.271
30.33,2.22
30.345,2.223
30.36,2.031
30.375,1.999
30.39,1.933
30.405,1.869
30.42,1.765
30.435,1.603
30.45,1.554
30.465,1.64
30.48,1.271
30.495,1.265
30.51,1.359
30.525,1.138
30.54,1.115
30.555,1.004
30.57,0.855
30.585,0.746
30.6,0.714
30.615,0.733
30.63,0.478
30.645,0.257
30.66,0.425
30.675,0.549
30.69,0.479
30.705,0.297
30.72,0.341
30.735,0.377
30.75,0.083
30.765,-0.015
30.78,0.161
30.795,0.245
30.81,0.026
30.825,-0.087
30.84,-0.049
30.855,0.033
30.87,0.158
30.885,0.095
30.9,-0.062
30.915,-0.028
30.93,0.038
30.945,-0.015
30.96,0.021
30.975,0.031
30.99,-0.04
31.005,0.017
31.02,-0.097
31.035,0.034
31.05,0.143
31.065,0.048
31.08,0.035
31.095,-0.088
31.11,-0.158
31.125,-0.042
31.14,-0.06
31.155,-0.055
31.17,0.044
31.185,0.093
31.2,-0.029
31.215,-0.092
31.23,0.094
31.245,-0.057
31.26,0.002
31.275,0.03
31.29,0.01
31.305,-0.153
31.32,-0.248
31.335,-0.262
31.35,-0.231
31.365,-0.048
31.38,0.032
31.395,-0.062
31.41,-0.091
31.425,-0.047
31.44,-0.094
31.455,-0.074
31.47,-0.08
31.485,-0.017
31.5,-0.052
31.515,-0.093
31.53,-0.168
31.545,-0.262
31.56,-0.054
31.575,0.024
31.59,-0.115
31.605,-0.048
31.62,-0.103
31.635,-0.236
31.65,-0.239
31.665,-0.188
31.68,-0.154
31.695,-0.055
31.71,0.04
31.725,0.049
31.74,-0.083
31.755,-0.128
31.77,-0.046
31.785,-0.033
31.8,-0.161
31.815,-0.177
31.83,-0.049
31.845,0.017
31.86,-0.016
31.875,0.059
31.89,0.064
31.905,-0.17
31.92,-0.04
31.935,0.004
31.95,0.111
31.965,0.082
31.98,-0.067
31.995,-0.12
32.01,-0.118
32.025,-0.122
32.04,-0.077
32.055,-0.126
32.07,0.031
32.085,0.081
32.1,-0.097
32.115,-0.262
32.13,-0.11
32.145,0.003
32.16,-0.233
32.175,-0.119
32.19,-0.08
32.205,-0.117
32.22,-0.041
32.235,-0.098
32.25,-0.197
32.265,-0.066
32.28,-0.037
32.295,-0.066
32.31,-0.137
32.325,-0.072
32.34,-0.125
32.355,-0.195
32.37,-0.225
32.385,-0.143
32.4,-0.047
32.415,-0.074
32.43,-0.145
32.445,-0.19
32.46,-0.041
32.475,0.117
32.49,0.138
32.505,0.027
32.52,-0.129
32.535,-0.06
32.55,-0.056
32.565,-0.143
32.58,-0.058
32.595,-0.052
32.61,-0.043
32.625,0.015
32.64,-0.026
32.655,-0.025
32.67,-0.041
32.685,-0.163
32.7,-0.215
32.715,-0.104
32.73,-0.109
32.745,-0.028
32.76,0.05
32.775,-0.118
32.79,-0.037
32.805,0.13
32.82,0.128
32.835,-0.086
32.85,-0.121
32.865,-0.137
32.88,-0.103
32.895,-0.053
32.91,-0.154
32.925,-0.063
32.94,-0.007
32.955,-0.121
32.97,-0.262
32.985,-0.214
33,-0.23
33.015,-0.191
33.03,-0.192
33.045,-0.044
33.06,-0.009
33.075,-0.047
33.09,-0.061
33.105,-0.118
33.12,-0.254
33.135,-0.257
33.15,-0.024
33.165,-0.081
33.18,-0.208
33.195,-0.037
33.21,-0.105
33.225,-0.123
33.24,-0.218
33.255,-0.219
33.27,-0.141
33.285,-0.173
33.3,-0.006
33.315,-0.06
33.33,-0.091
33.345,-0.188
33.36,-0.154
33.375,-0.119
33.39,-0.17
33.405,-0.085
33.42,-0.132
33.435,-0.058
33.45,-0.11
33.465,-0.13
33.48,-0.093
33.495,0.005
33.51,0.016
33.525,-0.217
33.54,-0.197
33.555,0.018
33.57,-0.114
33.585,-0.244
33.6,-0.215
33.615,-0.031
33.63,-0.13
33.645,-0.234
33.66,-0.06
33.675,-0.016
33.69,-0.009
33.705,0.012
33.72,-0.004
33.735,-0.067
33.75,-0.072
33.765,-0.148
33.78,-0.171
33.795,-0.021
33.81,-0.144
33.825,-0.259
33.84,0.002
33.855,-0.022
33.87,-0.09
33.885,-0.139
33.9,-0.119
33.915,-0.167
33.93,-0.144
33.945,-0.219
33.96,-0.172
33.975,-0.018
33.99,-0.017
34.005,-0.045
34.02,-0.155
34.035,-0.133
34.05,-0.069
34.065,0.007
34.08,-0.084
34.095,-0.049
34.11,-0.135
34.125,-0.072
34.14,0.013
34.155,-0.039
34.17,0.008
34.185,-0.047
34.2,-0.115
34.215,-0.098
34.23,-0.065
34.245,-0.012
34.26,0.087
34.275,0.116
34.29,0.09
34.305,0.073
34.32,0.118
34.335,0.096
34.35,0.148
34.365,0.01
34.38,0.076
34.395,0.18
34.41,0.241
34.425,0.186
34.44,0.214
34.455,0.281
34.47,0.36
34.485,0.209
34.5,0.15
34.515,0.192
34.53,0.365
34.545,0.277
34.56,0.228
34.575,0.235
34.59,0.188
34.605,0.254
34.62,0.276
34.635,0.14
34.65,0.241
34.665,0.393
34.68,0.3
34.695,0.333
34.71,0.342
34.725,0.28
34.74,0.439
34.755,0.409
34.77,0.557
34.785,0.671
34.8,0.592
34.815,0.53
34.83,0.554
34.845,0.605
34.86,0.624
34.875,0.803
34.89,0.98
34.905,1.061
34.92,1.075
34.935,0.993
34.95,1.148
34.965,1.228
34.98,1.403
34.995,1.416
35.01,1.604
35.025,1.824
35.04,1.984
35.055,2.329
35.07,2.523
35.085,2.807
35.1,3.017
35.115,3.07
35.13,3.324
35.145,3.733
35.16,4.073
35.175,4.541
35.19,4.769
35.205,4.992
35.22,5.258
35.235,5.393
35.25,5.747
35.265,6.073
35.28,6.24
35.295,6.566
35.31,6.934
35.325,7.241
35.34,7.474
35.355,7.705
35.37,8.091
35.385,8.444
35.4,8.621
35.415,8.769
35.43,8.897
35.445,8.926
35.46,9.133
35.475,9.31
35.49,9.23
35.505,9.101
35.52,9.13
35.535,9.165
35.55,9.119
35.565,8.934
35.58,8.831
35.595,8.7
35.61,8.574
35.625,8.433
35.64,8.154
35.655,7.93
35.67,7.617
35.685,7.245
35.7,7.175
35.715,6.991
35.73,6.593
35.745,6.31
35.76,6.062
35.775,5.957
35.79,5.78
35.805,5.288
35.82,4.991
35.835,4.714
35.85,4.544
35.865,4.142
35.88,3.997
35.895,3.518
35.91,3.427
35.925,3.436
35.94,3.212
35.955,2.816
35.97,2.626
35.985,2.493
36,2.319
36.015,1.988
36.03,1.769
36.045,1.58
36.06,1.492
36.075,1.347
36.09,1.353
36.105,1.198
36.12,1.087
36.135,1.045
36.15,0.904
36.165,0.756
36.18,0.696
36.195,0.544
36.21,0.599
36.225,0.538
36.24,0.489
36.255,0.492
36.27,0.345
36.285,0.275
36.3,0.263
36.315,0.287
36.33,0.272
36.345,0.185
36.36,0.255
36.375,0.285
36.39,0.328
36.405,0.229
36.42,0.157
36.435,0.168
36.45,0.29
36.465,0.265
36.48,0.165
36.495,0.029
36.51,0.082
36.525,0.201
36.54,0.22
36.555,0.119
36.57,0.253
36.585,0.169
36.6,0.244
36.615,0.283
36.63,0.061
36.645,0.044
36.66,0.189
36.675,0.203
36.69,0.339
36.705,0.299
36.72,0.243
36.735,0.062
36.75,0.1
36.765,0.08
36.78,0.069
36.795,0.249
36.81,0.099
36.825,0.032
36.84,0.117
36.855,0.172
36.87,0.099
36.885,0.234
36.9,0.368
36.915,0.362
36.93,0.471
36.945,0.434
36.96,0.235
36.975,0.254
36.99,0.455
37.005,0.496
37.02,0.526
37.035,0.41
37.05,0.369
37.065,0.326
37.08,0.238
37.095,0.377
37.11,0.377
37.125,0.238
37.14,0.118
37.155,0.248
37.17,0.48
37.185,0.372
37.2,0.207
37.215,0.22
37.23,0.361
37.245,0.369
37.26,0.365
37.275,0.371
37.29,0.391
37.305,0.309
37.32,0.24
37.335,0.175
37.35,0.09
37.365,0.125
37.38,0.113
37.395,0.133
37.41,0.174
37.425,0.117
37.44,0.084
37.455,0.163
37.47,0.193
37.485,0.082
37.5,0.078
37.515,0.024
37.53,0.134
37.545,0.182
37.56,0.118
37.575,0.121
37.59,0.078
37.605,0.065
37.62,-0.058
37.635,-0.084
37.65,-0.166
37.665,-0.261
37.68,-0.118
37.695,-0.075
37.71,-0.165
37.725,0.041
37.74,0.212
37.755,0.12
37.77,0.062
37.785,-0.063
37.8,-0.046
37.815,0.082
37.83,0.084
37.845,0.04
37.86,-0.13
37.875,-0.206
37.89,-0.097
37.905,-0.152
37.92,-0.144
37.935,-0.261
37.95,-0.198
37.965,-0.034
37.98,-0.117
37.995,-0.039
38.01,-0.192
38.025,-0.25
38.04,-0.057
38.055,0.082
38.07,-0.051
38.085,-0.197
38.1,-0.229
38.115,-0.104
38.13,-0.071
38.145,-0.004
38.16,-0.017
38.175,-0.015
38.19,-0.095
38.205,-0.027
38.22,-0.106
38.235,-0.068
38.25,-0.115
38.265,-0.091
38.28,-0.003
38.295,-0.024
38.31,-0.066
38.325,-0.01
38.34,0.013
38.355,0.09
38.37,-0.133
38.385,-0.092
38.4,-0.073
38.415,-0.02
38.43,-0.152
38.445,-0.149
38.46,-0.07
38.475,-0.042
38.49,0.042
38.505,-0.01
38.52,-0.074
38.535,-0.158
38.55,0.061
38.565,0.066
38.58,-0.028
38.595,-0.164
38.61,-0.136
38.625,-0.114
38.64,-0.109
38.655,-0.057
38.67,-0.072
38.685,-0.084
38.7,-0.112
38.715,-0.104
38.73,-0.011
38.745,0.09
38.76,0.019
38.775,-0.057
38.79,-0.102
38.805,-0.102
38.82,-0.032
38.835,-0.133
38.85,-0.181
38.865,-0.05
38.88,-0.027
38.895,-0.103
38.91,-0.157
38.925,-0.153
38.94,0.116
38.955,0.151
38.97,0.098
38.985,-0.017
39,-0.144
39.015,-0.19
39.03,-0.178
39.045,0.024
39.06,0.036
39.075,0.059
39.09,0.161
39.105,-0.004
39.12,-0.092
39.135,-0.106
39.15,-0.092
39.165,-0.124
39.18,-0.26
39.195,-0.123
39.21,0.037
39.225,-0.038
39.24,0.06
39.255,-0.063
39.27,-0.198
39.285,0.088
39.3,0.195
39.315,0.032
39.33,0.055
39.345,-0.129
39.36,-0.192
39.375,-0.006
39.39,-0.019
39.405,0.071
39.42,0.063
39.435,-0.077
39.45,0.024
39.465,0.052
39.48,0.01
39.495,-0.063
39.51,-0.246
39.525,-0.098
39.54,-0.01
39.555,0.034
39.57,0.012
39.585,-0.08
39.6,-0.183
39.615,-0.095
39.63,0.123
39.645,0.173
39.66,0.131
39.675,0.006
39.69,0.012
39.705,-0.19
39.72,-0.107
39.735,-0.056
39.75,0.002
39.765,0.09
39.78,0.08
39.795,-0.063
39.81,-0.072
39.825,0.087
39.84,0.078
39.855,-0.086
39.87,0.001
39.885,0.141
39.9,0
39.915,-0.091
39.93,-0.048
39.945,0.039
39.96,-0.041
39.975,-0.103
39.99,-0.191
40.005,-0.26
40.02,-0.135
40.035,-0.025
40.05,-0.052
40.065,-0.042
40.08,-0.054
40.095,0.005
40.11,-0.018
40.125,0.004
40.14,0.021
40.155,0.138
40.17,0.139
40.185,0.062
40.2,-0.215
40.215,-0.23
40.23,0.043
40.245,0.264
40.26,0.212
40.275,0.075
40.29,-0.005
40.305,-0.139
40.32,0.068
40.335,0.195
40.35,0.187
40.365,0.09
40.38,0
40.395,-0.13
40.41,-0.116
40.425,-0.052
40.44,0.078
40.455,-0.018
40.47,-0.17
40.485,-0.139
40.5,-0.212
40.515,-0.163
40.53,-0.011
40.545,-0.046
40.56,-0.046
40.575,0.021
40.59,-0.06
40.605,-0.088
40.62,-0.012
40.635,0.026
40.65,0.111
40.665,0.073
40.68,-0.06
40.695,-0.133
40.71,-0.151
40.725,-0.233
40.74,-0.166
40.755,-0.183
40.77,-0.156
40.785,-0.148
40.8,-0.224
40.815,-0.215
40.83,-0.141
40.845,-0.106
40.86,-0.094
40.875,-0.098
40.89,-0.098
40.905,-0.109
40.92,0.121
40.935,0.044
40.95,-0.054
40.965,-0.007
40.98,0.015
40.995,-0.056
41.01,-0.113
41.025,-0.233
41.04,-0.26
41.055,-0.154
41.07,-0.089
41.085,-0.092
41.1,-0.057
41.115,0.016
41.13,0.046
41.145,0.001
41.16,-0.207
41.175,-0.109
41.19,-0.153
41.205,-0.054
41.22,-0.048
41.235,-0.007
41.25,0.06
41.265,-0.024
41.28,0.069
41.295,0.1
41.31,-0.135
41.325,-0.143
41.34,0.034
41.355,0.014
41.37,-0.168
41.385,-0.118
41.4,-0.008
41.415,-0.108
41.43,-0.246
41.445,-0.22
41.46,0.087
41.475,0.005
41.49,0.093
41.505,-0.021
41.52,-0.142
41.535,-0.244
41.55,0.033
41.565,0.224
41.58,0.152
41.595,-0.083
41.61,-0.144
41.625,-0.049
41.64,-0.038
41.655,-0.107
41.67,-0.165
41.685,-0.105
41.7,-0.177
41.715,-0.114
41.73,-0.044
41.745,-0.168
41.76,-0.23
41.775,-0.26
41.79,-0.17
41.805,-0.009
41.82,0.125
41.835,0.108
41.85,0.067
41.865,0.009
41.88,0.058
41.895,0.024
41.91,-0.037
41.925,-0.048
41.94,-0.142
41.955,-0.234
41.97,-0.193
41.985,-0.036
42,-0.031
42.015,-0.095
42.03,-0.002
42.045,-0.088
42.06,-0.051
42.075,-0.052
42.09,0.018
42.105,0.159
42.12,0.108
42.135,0.053
42.15,0.04
42.165,0.065
42.18,0.004
42.195,-0.122
42.21,-0.067
42.225,0.03
42.24,-0.051
42.255,-0.073
42.27,0.013
42.285,-0.043
42.3,-0.007
42.315,0.007
42.33,0.096
42.345,-0.001
42.36,-0.101
42.375,-0.01
42.39,0.092
42.405,0.029
42.42,-0.009
42.435,0.008
42.45,0.137
42.465,0.108
42.48,-0.048
42.495,-0.019
42.51,0.049
42.525,0.127
42.54,-0.006
42.555,0.069
42.57,0.138
42.585,0.132
42.6,0.122
42.615,0.009
42.63,0.059
42.645,0.258
42.66,0.091
42.675,-0.032
42.69,0.291
42.705,0.459
42.72,0.46
42.735,0.396
42.75,0.587
42.765,0.496
42.78,0.54
42.795,0.609
42.81,0.789
42.825,0.73
42.84,0.684
42.855,0.79
42.87,0.847
42.885,0.983
42.9,0.953
42.915,0.87
42.93,1.019
42.945,1.233
42.96,1.165
42.975,1.242
42.99,1.397
43.005,1.423
43.02,1.443
43.035,1.567
43.05,1.677
43.065,1.709
43.08,1.509
43.095,1.665
43.11,1.751
43.125,1.692
43.14,1.824
43.155,1.845
43.17,1.79
43.185,1.66
43.2,1.639
43.215,1.583
43.23,1.642
43.245,1.726
43.26,1.68
43.275,1.468
43.29,1.49
43.305,1.56
43.32,1.443
43.335,1.287
43.35,1.375
43.365,1.401
43.38,1.151
43.395,1.274
43.41,1.302
43.425,1.147
43.44,1.087
43.455,1.002
43.47,0.969
43.485,0.834
43.5,0.805
43.515,0.78
43.53,0.817
43.545,0.75
43.56,0.543
43.575,0.476
43.59,0.343
43.605,0.375
43.62,0.438
43.635,0.495
43.65,0.4
43.665,0.142
43.68,0.212
43.695,0.372
43.71,0.212
43.725,0.197
43.74,0.226
43.755,0.107
43.77,0.005
43.785,-0.054
43.8,-0.059
43.815,-0.152
43.83,-0.041
43.845,0.141
43.86,0.138
43.875,0.191
43.89,0.152
43.905,-0.028
43.92,-0.049
43.935,0.068
43.95,-0.078
43.965,-0.156
43.98,-0.133
43.995,-0.098
44.01,-0.1
44.025,-0.078
44.04,-0.055
44.055,-0.091
44.07,-0.057
44.085,-0.077
44.1,-0.116
44.115,-0.11
44.13,-0.026
44.145,-0.059
44.16,-0.036
44.175,-0.035
44.19,-0.146
44.205,-0.214
44.22,-0.086
44.235,0.005
44.25,-0.092
44.265,-0.189
44.28,-0.102
44.295,0.082
44.31,0.165
44.325,0.063
44.34,-0.01
44.355,-0.07
44.37,0.046
44.385,0.002
44.4,-0.004
44.415,0.009
44.43,0.055
44.445,-0.013
44.46,0.038
44.475,0.127
44.49,0.1
44.505,-0.041
44.52,-0.097
44.535,-0.259
44.55,-0.116
44.565,0
44.58,-0.093
44.595,-0.12
44.61,-0.023
44.625,0.005
44.64,-0.012
44.655,-0.006
44.67,0.023
44.685,0.028
44.7,-0.083
44.715,-0.008
44.73,0.07
44.745,0.101
44.76,0.133
44.775,-0.022
44.79,-0.018
44.805,0.055
44.82,-0.02
44.835,-0.087
44.85,-0.248
44.865,-0.191
44.88,-0.229
44.895,-0.144
44.91,0.009
44.925,0.144
44.94,0.098
44.955,0.048
44.97,0.016
44.985,0.078
45,0.136
45.015,0.015
45.03,-0.103
45.045,-0.194
45.06,-0.198
45.075,-0.06
45.09,-0.074
45.105,-0.162
45.12,-0.169
45.135,-0.2
45.15,-0.148
45.165,-0.059
45.18,-0.153
45.195,-0.084
45.21,0.085
45.225,-0.055
45.24,-0.143
45.255,-0.141
45.27,-0.112
45.285,-0.084
45.3,-0.029
45.315,-0.005
45.33,-0.115
45.345,0.096
45.36,0.061
45.375,-0.018
45.39,-0.093
45.405,-0.031
45.42,-0.115
45.435,-0.18
45.45,-0.087
45.465,-0.053
45.48,0.021
45.495,0.043
45.51,-0.094
45.525,0.011
45.54,-0.003
45.555,0.002
45.57,-0.035
45.585,-0.124
45.6,-0.114
45.615,-0.155
45.63,-0.201
45.645,-0.182
45.66,-0.138
45.675,-0.019
45.69,0.033
45.705,-0.112
45.72,-0.232
45.735,-0.211
45.75,-0.073
45.765,0.022
45.78,-0.001
45.795,-0.055
45.81,-0.086
45.825,-0.132
45.84,-0.232
45.855,-0.068
45.87,0.114
45.885,0.026
45.9,-0.13
45.915,-0.058
45.93,-0.047
45.945,-0.17
45.96,-0.05
45.975,-0.013
45.99,0.025
46.005,0.011
46.02,-0.019
46.035,-0.008
46.05,0.025
46.065,0.072
46.08,-0.031
46.095,-0.091
46.11,-0.039
46.125,-0.129
46.14,-0.259
46.155,-0.147
46.17,-0.135
46.185,-0.097
46.2,0.095
46.215,-0.044
46.23,-0.168
46.245,-0.156
46.26,-0.039
46.275,0.001
46.29,0.018
46.305,-0.053
46.32,-0.07
46.335,-0.033
46.35,-0.135
46.365,-0.222
46.38,-0.136
46.395,-0.157
46.41,-0.05
46.425,0.067
46.44,0.123
46.455,0.054
46.47,-0.018
46.485,-0.118
46.5,-0.012
46.515,0.004
46.53,0.011
46.545,-0.003
46.56,0.052
46.575,-0.011
46.59,-0.058
46.605,0.004
46.62,0.02
46.635,-0.084
46.65,0.027
46.665,0.099
46.68,-0.205
46.695,-0.247
46.71,-0.152
46.725,-0.191
46.74,-0.036
46.755,-0.008
46.77,0.092
46.785,-0.01
46.8,-0.214
46.815,-0.095
46.83,0.024
46.845,-0.043
46.86,-0.009
46.875,-0.015
46.89,0.075
46.905,0.177
46.92,0.017
46.935,0.012
46.95,-0.035
46.965,0.018
46.98,-0.183
46.995,-0.14
47.01,0.001
47.025,-0.087
47.04,0.005
47.055,0.03
47.07,-0.008
47.085,0.179
47.1,0.017
47.115,-0.176
47.13,-0.258
47.145,0.002
47.16,0.183
47.175,0.029
47.19,-0.029
47.205,-0.192
47.22,-0.123
47.235,-0.016
47.25,-0.065
47.265,-0.039
47.28,-0.03
47.295,0.102
47.31,0.06
47.325,-0.06
47.34,-0.05
47.355,-0.106
47.37,-0.097
47.385,0.063
47.4,-0.015
47.415,-0.133
47.43,-0.144
47.445,-0.037
47.46,-0.043
47.475,-0.128
47.49,-0.227
47.505,-0.092
47.52,0.039
47.535,-0.093
47.55,-0.053
47.565,0.098
47.58,-0.134
47.595,-0.19
47.61,-0.105
47.625,-0.074
47.64,0.074
47.655,-0.094
47.67,-0.008
47.685,-0.001
47.7,-0.162
47.715,-0.184
47.73,-0.086
47.745,0.096
47.76,0.038
47.775,-0.097
47.79,-0.153
47.805,-0.148
47.82,-0.022
47.835,0.033
47.85,-0.011
47.865,0.059
47.88,0.122
47.895,-0.096
47.91,-0.15
47.925,-0.128
47.94,-0.101
47.955,-0.058
47.97,-0.102
47.985,-0.026
48,0.067
48.015,0.066
48.03,-0.043
48.045,-0.069
48.06,0.135
48.075,0.002
48.09,0.112
48.105,0.222
48.12,0.011
48.135,-0.136
48.15,-0.048
48.165,0.109
48.18,0.12
48.195,-0.017
48.21,-0.175
48.225,-0.099
48.24,-0.078
48.255,-0.12
48.27,-0.162
48.285,-0.018
48.3,-0.047
48.315,-0.116
48.33,-0.098
48.345,-0.14
48.36,-0.15
48.375,-0.096
48.39,-0.138
48.405,-0.032
48.42,0.037
48.435,-0.043
48.45,-0.051
48.465,-0.142
48.48,-0.215
48.495,0.003
48.51,0.087
48.525,0.075
48.54,0.082
48.555,0.021
48.57,-0.12
48.585,-0.202
48.6,-0.199
48.615,-0.182
48.63,-0.151
48.645,0.018
48.66,-0.138
48.675,0.008
48.69,0.021
48.705,-0.071
48.72,-0.048
48.735,-0.029
48.75,-0.075
48.765,-0.159
48.78,-0.015
48.795,0.002
48.81,-0.151
48.825,-0.149
48.84,-0.031
48.855,0.076
48.87,-0.039
48.885,-0.109
48.9,-0.052
48.915,0.003
48.93,-0.112
48.945,-0.258
48.96,-0.05
48.975,0.015
48.99,0.011
49.005,-0.086
49.02,-0.053
49.035,-0.033
49.05,-0.014
49.065,0.038
49.08,0.002
49.095,-0.053
49.11,-0.09
49.125,0.043
49.14,0.135
49.155,0.022
49.17,-0.017
49.185,-0.094
49.2,-0.112
49.215,-0.041
49.23,-0.201
49.245,-0.041
49.26,0.04
49.275,0
49.29,-0.109
49.305,-0.151
49.32,-0.202
49.335,-0.173
49.35,-0.167
49.365,-0.234
49.38,-0.045
49.395,0.005
49.41,-0.007
49.425,-0.026
49.44,0.096
49.455,-0.094
49.47,-0.258
49.485,-0.207
49.5,-0.119
49.515,-0.193
49.53,-0.069
49.545,-0.038
49.56,-0.192
49.575,-0.14
49.59,-0.151
49.605,-0.074
49.62,-0.092
49.635,-0.099
49.65,-0.08
49.665,0.001
49.68,0
49.695,0.148
49.71,0.136
49.725,0.058
49.74,-0.011
49.755,0.014
49.77,-0.064
49.785,-0.19
49.8,-0.145
49.815,-0.173
49.83,-0.082
49.845,0.067
49.86,-0.027
49.875,-0.041
49.89,-0.079
49.905,-0.053
49.92,-0.087
49.935,-0.182
49.95,-0.114
49.965,-0.014
49.98,0.013
49.995,-0.117
50.01,-0.038
50.025,-0.062
50.04,-0.116
50.055,-0.057
50.07,-0.033
50.085,-0.078
50.1,-0.089
50.115,-0.105
50.13,-0.11
50.145,-0.094
50.16,0.092
50.175,0.056
50.19,0.055
50.205,0.056
50.22,0.004
50.235,0.054
50.25,-0.033
50.265,-0.115
50.28,-0.153
50.295,-0.17
50.31,-0.132
50.325,-0.079
50.34,-0.159
50.355,-0.082
50.37,-0.239
50.385,-0.202
50.4,-0.078
50.415,0.008
50.43,-0.245
50.445,-0.218
50.46,-0.091
50.475,-0.053
50.49,-0.054
50.505,0.021
50.52,-0.089
50.535,-0.188
50.55,0.003
50.565,0.058
50.58,-0.143
50.595,-0.103
50.61,-0.102
50.625,-0.095
50.64,-0.092
50.655,-0.134
50.67,-0.072
50.685,-0.087
50.7,-0.141
50.715,-0.084
50.73,-0.186
50.745,-0.225
50.76,-0.161
50.775,-0.195
50.79,-0.129
50.805,-0.129
50.82,-0.049
50.835,-0.063
50.85,-0.061
50.865,0.066
50.88,-0.171
50.895,-0.148
50.91,-0.135
50.925,-0.063
50.94,0.01
50.955,-0.046
50.97,-0.18
50.985,-0.122
51,-0.118
51.015,-0.048
51.03,-0.148
51.045,-0.183
51.06,-0.138
51.075,0.044
51.09,0.063
51.105,0.055
51.12,-0.07
51.135,-0.083
51.15,-0.151
51.165,-0.128
51.18,-0.104
51.195,-0.023
51.21,0.01
51.225,-0.079
51.24,0.02
51.255,0.139
51.27,-0.075
51.285,-0.158
51.3,-0.258
51.315,-0.01
51.33,-0.007
51.345,0.015
51.36,0.141
51.375,0.059
51.39,-0.046
51.405,0.013
51.42,0.057
51.435,0.008
51.45,-0.018
51.465,-0.01
51.48,0.019
51.495,-0.089
51.51,-0.199
51.525,-0.258
51.54,-0.173
51.555,0.056
51.57,0.052
51.585,-0.113
51.6,-0.17
51.615,-0.183
51.63,-0.071
51.645,-0.041
51.66,-0.154
51.675,-0.17
51.69,-0.08
51.705,-0.03
51.72,0.04
51.735,0.02
51.75,-0.009
51.765,-0.081
51.78,-0.084
51.795,-0.016
51.81,-0.116
51.825,-0.122
51.84,0.093
51.855,-0.061
51.87,-0.118
51.885,-0.205
51.9,-0.126
51.915,-0.06
51.93,-0.027
51.945,0.053
51.96,-0.032
51.975,-0.209
51.99,-0.059
52.005,-0.025
52.02,-0.122
52.035,-0.082
52.05,-0.053
52.065,-0.219
52.08,-0.25
52.095,-0.139
52.11,-0.065
52.125,-0.009
52.14,0.014
52.155,-0.077
52.17,-0.092
52.185,-0.142
52.2,-0.132
52.215,0.062
52.23,-0.032
52.245,-0.028
52.26,-0.072
52.275,-0.16
52.29,0.079
52.305,0.083
52.32,-0.037
52.335,-0.052
52.35,-0.063
52.365,-0.101
52.38,-0.175
52.395,-0.258
52.41,-0.181
52.425,-0.078
52.44,0.114
52.455,0.036
52.47,-0.123
52.485,-0.069
52.5,-0.128
52.515,-0.017
52.53,-0.045
52.545,-0.126
52.56,-0.064
52.575,-0.037
52.59,-0.041
52.605,0.032
52.62,0.014
52.635,-0.02
52.65,-0.081
52.665,-0.218
52.68,-0.136
52.695,-0.076
52.71,0.005
52.725,0.054
52.74,-0.05
52.755,-0.103
52.77,0.038
52.785,0.085
52.8,0.008
52.815,-0.017
52.83,0.051
52.845,0.122
52.86,0.119
52.875,0.013
52.89,-0.089
52.905,0.002
52.92,0.016
52.935,-0.078
52.95,0.104
52.965,0.282
52.98,0.163
52.995,0.108
53.01,0.08
53.025,0.065
53.04,-0.065
53.055,-0.087
53.07,0.087
53.085,0.094
53.1,-0.01
53.115,0.118
53.13,0.308
53.145,0.244
53.16,0.159
53.175,0.256
53.19,0.218
53.205,0.478
53.22,0.42
53.235,0.351
53.25,0.542
53.265,0.496
53.28,0.579
53.295,0.767
53.31,0.601
53.325,0.507
53.34,0.536
53.355,0.672
53.37,0.6
53.385,0.675
53.4,0.627
53.415,0.62
53.43,0.752
53.445,0.709
53.46,0.588
53.475,0.718
53.49,0.729
53.505,0.668
53.52,0.807
53.535,0.709
53.55,0.821
53.565,0.774
53.58,0.692
53.595,0.668
53.61,0.737
53.625,0.668
53.64,0.709
53.655,0.703
53.67,0.733
53.685,0.946
53.7,0.871
53.715,0.71
53.73,0.666
53.745,0.758
53.76,0.797
53.775,0.712
53.79,0.719
53.805,0.621
53.82,0.46
53.835,0.426
53.85,0.522
53.865,0.442
53.88,0.317
53.895,0.283
53.91,0.346
53.925,0.482
53.94,0.343
53.955,0.125
53.97,0.139
53.985,0.262
54,0.257
54.015,-0.032
54.03,-0.096
54.045,0.036
54.06,0.152
54.075,0.231
54.09,0.224
54.105,0.185
54.12,0.071
54.135,0.051
54.15,0.07
54.165,0.089
54.18,0.089
54.195,-0.014
54.21,-0.042
54.225,-0.039
54.24,-0.013
54.255,0.046
54.27,-0.002
54.285,0.024
54.3,0.031
54.315,-0.044
54.33,0.005
54.345,-0.049
54.36,-0.258
54.375,-0.071
54.39,-0.037
54.405,-0.082
54.42,-0.067
54.435,-0.009
54.45,-0.038
54.465,-0.082
54.48,-0.061
54.495,0.047
54.51,-0.095
54.525,-0.122
54.54,-0.174
54.555,-0.074
54.57,0.002
54.585,0.039
54.6,-0.091
54.615,-0.168
54.63,-0.051
54.645,0.088
54.66,-0.104
54.675,-0.258
54.69,0.034
54.705,-0.017
54.72,-0.107
54.735,-0.038
54.75,-0.082
54.765,-0.197
54.78,-0.066
54.795,-0.047
54.81,-0.078
54.825,-0.136
54.84,0.016
54.855,-0.063
54.87,-0.155
54.885,-0.21
54.9,-0.093
54.915,0.017
54.93,0.035
54.945,-0.018
54.96,0.014
54.975,0.033
54.99,0.139
55.005,-0.008
55.02,-0.152
55.035,-0.258
55.05,-0.167
55.065,-0.253
55.08,-0.246
55.095,-0.17
55.11,-0.065
55.125,0.093
55.14,0.039
55.155,-0.181
55.17,-0.213
55.185,-0.125
55.2,-0.134
55.215,-0.132
55.23,-0.048
55.245,-0.084
55.26,-0.198
55.275,-0.216
55.29,-0.088
55.305,-0.004
55.32,-0.166
55.335,-0.189
55.35,-0.149
55.365,-0.085
55.38,-0.129
55.395,-0.151
55.41,-0.11
55.425,-0.139
55.44,-0.176
55.455,-0.253
55.47,-0.1
55.485,-0.07
55.5,-0.106
55.515,-0.257
55.53,-0.148
55.545,-0.035
55.56,-0.198
55.575,-0.229
55.59,-0.143
55.605,0.026
55.62,-0.009
55.635,-0.114
55.65,-0.122
55.665,0.003
55.68,-0.233
55.695,-0.181
55.71,-0.194
55.725,-0.187
55.74,0.071
55.755,0.188
55.77,0.026
55.785,0.024
55.8,-0.061
55.815,-0.143
55.83,0.01
55.845,-0.152
55.86,-0.152
55.875,-0.017
55.89,-0.079
55.905,-0.004
55.92,0.047
55.935,-0.012
55.95,0.014
55.965,0.056
55.98,0.115
55.995,-0.123
56.01,-0.183
56.025,-0.049
56.04,0.029
56.055,0.062
56.07,0.074
56.085,-0.082
56.1,-0.199
56.115,0.025
56.13,-0.019
56.145,0.015
56.16,0.13
56.175,0.124
56.19,-0.043
56.205,-0.14
56.22,0.015
56.235,0.109
56.25,0.069
56.265,0.122
56.28,0.032
56.295,-0.04
56.31,-0.06
56.325,0.233
56.34,0.284
56.355,0.168
56.37,0.207
56.385,0.158
56.4,0.097
56.415,0.053
56.43,0.135
56.445,0.158
56.46,0.112
56.475,0.2
56.49,0.223
56.505,0.31
56.52,0.355
56.535,0.465
56.55,0.491
56.565,0.506
56.58,0.486
56.595,0.473
56.61,0.381
56.625,0.506
56.64,0.536
56.655,0.568
56.67,0.667
56.685,0.787
56.7,0.841
56.715,0.986
56.73,1.054
56.745,1.171
56.76,1.143
56.775,1.202
56.79,1.425
56.805,1.36
56.82,1.523
56.835,1.804
56.85,1.875
56.865,1.741
56.88,1.714
56.895,1.787
56.91,2.076
56.925,1.92
56.94,2.112
56.955,2.312
56.97,2.366
56.985,2.423
57,2.46
57.015,2.467
57.03,2.451
57.045,2.473
57.06,2.469
57.075,2.644
57.09,2.81
57.105,2.75
57.12,2.657
57.135,2.567
57.15,2.487
57.165,2.341
57.18,2.231
57.195,2.515
57.21,2.513
57.225,2.292
57.24,2.218
57.255,2.023
57.27,2.148
57.285,2.221
57.3,2.147
57.315,2.087
57.33,2.152
57.345,2.109
57.36,1.964
57.375,1.909
57.39,1.66
57.405,1.658
57.42,1.737
57.435,1.604
57.45,1.45
57.465,1.186
57.48,1.182
57.495,1.159
57.51,1.084
57.525,1.057
57.54,1.102
57.555,0.929
57.57,0.863
57.585,0.86
57.6,0.769
57.615,0.786
57.63,0.593
57.645,0.51
57.66,0.598
57.675,0.578
57.69,0.37
57.705,0.231
57.72,0.329
57.735,0.296
57.75,0.281
57.765,0.415
57.78,0.288
57.795,0.25
57.81,0.362
57.825,0.216
57.84,0.17
57.855,0.14
57.87,0.127
57.885,0.045
57.9,0.063
57.915,0.07
57.93,0.03
57.945,0.005
57.96,0.053
57.975,-0.022
57.99,0.031
58.005,0.025
58.02,-0.125
58.035,0.05
58.05,-0.045
58.065,-0.09
58.08,-0.112
58.095,-0.034
58.11,0.139
58.125,0.138
58.14,0.067
58.155,0.129
58.17,0
58.185,-0.05
58.2,-0.017
58.215,-0.026
58.23,-0.14
58.245,-0.123
58.26,-0.027
58.275,-0.029
58.29,-0.179
58.305,-0.257
58.32,-0.069
58.335,0.12
58.35,0.221
58.365,0.106
58.38,0.195
58.395,0.141
58.41,-0.023
58.425,-0.101
58.44,-0.03
58.455,-0.023
58.47,0.009
58.485,0.018
58.5,0.062
58.515,0.056
58.53,0.077
58.545,0.104
58.56,-0.013
58.575,-0.122
58.59,-0.058
58.605,0.039
58.62,0.149
58.635,0.005
58.65,-0.005
58.665,-0.107
58.68,-0.018
58.695,-0.042
58.71,-0.136
58.725,-0.14
58.74,-0.049
58.755,0.068
58.77,0.076
58.785,-0.056
58.8,-0.048
58.815,-0.173
58.83,-0.094
58.845,-0.094
58.86,-0.192
58.875,-0.217
58.89,-0.129
58.905,-0.065
58.92,0.202
58.935,0.187
58.95,-0.001
58.965,-0.007
58.98,-0.042
58.995,-0.215
59.01,-0.256
59.025,0.071
59.04,0.157
59.055,0.015
59.07,-0.002
59.085,0.038
59.1,0.07
59.115,-0.108
59.13,-0.165
59.145,-0.057
59.16,0.017
59.175,-0.009
59.19,-0.191
59.205,-0.172
59.22,-0.031
59.235,-0.025
59.25,0.026
59.265,-0.046
59.28,-0.065
59.295,0.03
59.31,-0.073
59.325,0.012
59.34,0.109
59.355,-0.04
59.37,-0.154
59.385,-0.133
59.4,-0.139
59.415,-0.138
59.43,-0.14
59.445,-0.11
59.46,-0.127
59.475,-0.053
59.49,-0.014
59.505,-0.038
59.52,-0.121
59.535,-0.138
59.55,-0.131
59.565,-0.068
59.58,-0.048
59.595,-0.045
59.61,0.039
59.625,0.041
59.64,0.018
59.655,0.043
59.67,-0.02
59.685,-0.065
59.7,-0.106
59.715,-0.134
59.73,-0.026
59.745,-0.128
59.76,-0.059
59.775,-0.008
59.79,-0.002
59.805,-0.06
59.82,-0.17
59.835,-0.149
59.85,-0.096
59.865,-0.186
59.88,-0.158
59.895,0.013
59.91,0.079
59.925,0.013
59.94,-0.034
59.955,-0.194
59.97,-0.058
59.985,-0.014
60,-0.063
60.015,0.041
60.03,0.084
60.045,-0.016
60.06,0.069
60.075,0.126
60.09,0.082
60.105,0.042
60.12,0.018
60.135,-0.038
60.15,-0.222
60.165,-0.256
60.18,-0.192
60.195,-0.088
60.21,-0.117
60.225,-0.04
60.24,0.05
60.255,-0.136
60.27,-0.093
60.285,-0.01
60.3,0.015
60.315,0.005
60.33,0.077
60.345,-0.025
60.36,-0.093
60.375,-0.154
60.39,-0.118
60.405,-0.032
60.42,0.091
60.435,0.122
60.45,0.031
60.465,-0.021
60.48,-0.002
60.495,-0.054
60.51,-0.057
60.525,-0.079
60.54,-0.145
60.555,-0.224
60.57,-0.256
60.585,-0.208
60.6,-0.186
60.615,-0.072
60.63,0.036
60.645,-0.081
60.66,-0.186
60.675,-0.102
60.69,-0.102
60.705,0.025
60.72,0.119
60.735,0.042
60.75,0.084
60.765,0.034
60.78,-0.075
60.795,-0.14
60.81,0.007
60.825,0.01
60.84,-0.107
60.855,-0.123
60.87,-0.096
60.885,-0.086
60.9,0.107
60.915,-0.017
60.93,0.049
60.945,0.028
60.96,0.072
60.975,0.01
60.99,-0.162
61.005,-0.074
61.02,0.012
61.035,-0.166
61.05,-0.153
61.065,-0.092
61.08,-0.088
61.095,-0.256
61.11,-0.113
61.125,0.013
61.14,-0.075
61.155,-0.144
61.17,-0.062
61.185,0.024
61.2,0.002
61.215,0.089
61.23,0.109
61.245,-0.083
61.26,-0.175
61.275,-0.212
61.29,-0.149
61.305,0.006
61.32,-0.057
61.335,-0.061
61.35,-0.013
61.365,-0.03
61.38,-0.045
61.395,-0.003
61.41,-0.069
61.425,-0.059
61.44,0.003
61.455,-0.026
61.47,0.088
61.485,0.121
61.5,0.002
61.515,-0.013
61.53,0.083
61.545,0.074
61.56,0.051
61.575,0.088
61.59,0.018
61.605,-0.005
61.62,0.087
61.635,-0.008
61.65,-0.008
61.665,-0.031
61.68,-0.058
61.695,-0.032
61.71,-0.059
61.725,0.135
61.74,0.148
61.755,0.088
61.77,0.153
61.785,0.08
61.8,0.051
61.815,-0.006
61.83,0.029
61.845,0.081
61.86,0.12
61.875,0.09
61.89,0.03
61.905,0.016
61.92,0.101
61.935,0.226
61.95,0.241
61.965,0.075
61.98,-0.005
61.995,0.151
62.01,0.338
62.025,0.399
62.04,0.183
62.055,0.096
62.07,0.287
62.085,0.121
62.1,0.235
62.115,0.348
62.13,0.466
62.145,0.491
62.16,0.556
62.175,0.767
62.19,0.809
62.205,0.779
62.22,0.724
62.235,0.778
62.25,0.881
62.265,0.991
62.28,1.117
62.295,1.214
62.31,1.345
62.325,1.586
62.34,1.662
62.355,1.801
62.37,1.883
62.385,1.91
62.4,1.925
62.415,2.063
62.43,2.201
62.445,2.246
62.46,2.387
62.475,2.404
62.49,2.334
62.505,2.691
62.52,2.888
62.535,2.964
62.55,3.123
62.565,3.161
62.58,3.091
62.595,3.175
62.61,3.303
62.625,3.29
62.64,3.331
62.655,3.372
62.67,3.415
62.685,3.41
62.7,3.425
62.715,3.437
62.73,3.474
62.745,3.481
62.76,3.668
62.775,3.628
62.79,3.35
62.805,3.36
62.82,3.387
62.835,3.381
62.85,3.264
62.865,3.082
62.88,3.022
62.895,3.049
62.91,2.976
62.925,2.69
62.94,2.741
62.955,2.751
62.97,2.863
62.985,2.767
63,2.456
63.015,2.318
63.03,2.208
63.045,2.191
63.06,2.16
63.075,1.997
63.09,1.769
63.105,1.791
63.12,1.759
63.135,1.757
63.15,1.606
63.165,1.349
63.18,1.306
63.195,1.127
63.21,1.079
63.225,1.011
63.24,0.975
63.255,0.942
63.27,1.004
63.285,0.882
63.3,0.707
63.315,0.724
63.33,0.606
63.345,0.456
63.36,0.478
63.375,0.573
63.39,0.581
63.405,0.533
63.42,0.342
63.435,0.278
63.45,0.275
63.465,0.282
63.48,0.418
63.495,0.347
63.51,0.233
63.525,0.227
63.54,0.156
63.555,-0.025
63.57,0.121
63.585,0.129
63.6,-0.054
63.615,0.095
63.63,0.181
63.645,0.113
63.66,0.144
63.675,0.01
63.69,-0.108
63.705,0.018
63.72,-0.047
63.735,-0.076
63.75,-0.129
63.765,0.025
63.78,0.158
63.795,0.108
63.81,-0.015
63.825,-0.113
63.84,-0.047
63.855,0.06
63.87,-0.062
63.885,-0.063
63.9,0.028
63.915,0.114
63.93,0.099
63.945,0.171
63.96,0.109
63.975,-0.055
63.99,-0.014
64.005,0.148
64.02,0.091
64.035,0.049
64.05,0.134
64.065,0.05
64.08,0.056
64.095,0.075
64.11,0.122
64.125,0.015
64.14,0.031
64.155,-0.002
64.17,-0.085
64.185,-0.255
64.2,-0.069
64.215,0.145
64.23,-0.02
64.245,0.048
64.26,0.102
64.275,0.043
64.29,-0.012
64.305,-0.042
64.32,-0.043
64.335,-0.036
64.35,0.048
64.365,0.082
64.38,0.022
64.395,0.106
64.41,0.155
64.425,0.084
64.44,0.033
64.455,-0.014
64.47,-0.077
64.485,-0.01
64.5,0.131
64.515,0.042
64.53,0.04
64.545,0.047
64.56,0.141
64.575,-0.018
64.59,-0.022
64.605,0.043
64.62,-0.014
64.635,-0.11
64.65,-0.078
64.665,-0.051
64.68,-0.134
64.695,-0.068
64.71,-0.065
64.725,-0.103
64.74,-0.114
64.755,-0.172
64.77,-0.107
64.785,-0.032
64.8,-0.067
64.815,-0.144
64.83,-0.145
64.845,-0.235
64.86,-0.172
64.875,-0.116
64.89,-0.089
64.905,-0.047
64.92,-0.014
64.935,0.014
64.95,-0.088
64.965,-0.103
64.98,-0.146
64.995,-0.255
65.01,-0.083
65.025,-0.018
65.04,-0.049
65.055,-0.009
65.07,-0.073
65.085,-0.063
65.1,0.042
65.115,0.109
65.13,0.011
65.145,0.035
65.16,0.072
65.175,0.005
65.19,-0.22
65.205,-0.184
65.22,0.02
65.235,-0.024
65.25,-0.074
65.265,-0.097
65.28,-0.132
65.295,-0.038
65.31,0.087
65.325,0.231
65.34,0.152
65.355,-0.163
65.37,-0.119
65.385,-0.05
65.4,-0.072
65.415,0.082
65.43,0.076
65.445,-0.048
65.46,-0.043
65.475,-0.005
65.49,-0.142
65.505,-0.059
65.52,-0.114
65.535,-0.207
65.55,-0.161
65.565,-0.032
65.58,0.045
65.595,-0.068
65.61,-0.232
65.625,-0.048
65.64,0.144
65.655,0.01
65.67,-0.038
65.685,-0.118
65.7,-0.061
65.715,0.078
65.73,-0.02
65.745,-0.094
65.76,0.006
65.775,0.057
65.79,0.023
65.805,0
65.82,-0.235
65.835,-0.255
65.85,0.063
65.865,0.109
65.88,-0.082
65.895,-0.107
65.91,-0.093
65.925,-0.091
65.94,-0.003
65.955,0.032
65.97,0.006
65.985,-0.05
66,-0.148
66.015,-0.147
66.03,-0.223
66.045,-0.168
66.06,-0.131
66.075,-0.198
66.09,-0.203
66.105,-0.215
66.12,-0.108
66.135,0.05
66.15,0.089
66.165,-0.005
66.18,-0.023
66.195,-0.096
66.21,-0.177
66.225,-0.14
66.24,-0.153
66.255,-0.086
66.27,0.069
66.285,0.004
66.3,-0.116
66.315,-0.055
66.33,-0.018
66.345,-0.112
66.36,-0.14
66.375,-0.109
66.39,-0.033
66.405,-0.048
66.42,-0.136
66.435,-0.086
66.45,0.006
66.465,-0.152
66.48,-0.149
66.495,-0.008
66.51,-0.05
66.525,-0.006
66.54,-0.063
66.555,-0.144
66.57,-0.093
66.585,-0.006
66.6,0.006
66.615,-0.124
66.63,-0.112
66.645,0.039
66.66,0.009
66.675,-0.042
66.69,-0.054
66.705,-0.105
66.72,-0.123
66.735,-0.005
66.75,-0.126
66.765,-0.141
66.78,-0.08
66.795,-0.106
66.81,-0.06
66.825,-0.057
66.84,0.046
66.855,-0.091
66.87,-0.137
66.885,0.02
66.9,-0.077
66.915,-0.182
66.93,-0.199
66.945,-0.142
66.96,-0.114
66.975,-0.127
66.99,-0.141
67.005,-0.095
67.02,-0.072
67.035,0.058
67.05,0.085
67.065,-0.019
67.08,-0.196
67.095,-0.113
67.11,0.08
67.125,0.106
67.14,0.061
67.155,-0.033
67.17,-0.044
67.185,-0.013
67.2,-0.095
67.215,-0.04
67.23,0.105
67.245,0.013
67.26,0.039
67.275,0.092
67.29,0.114
67.305,0.007
67.32,0.01
67.335,0.019
67.35,0.118
67.365,0.149
67.38,0.132
67.395,0.078
67.41,-0.026
67.425,-0.194
67.44,-0.254
67.455,-0.165
67.47,0.073
67.485,0.066
67.5,-0.003
67.515,-0.137
67.53,-0.181
67.545,-0.008
67.56,0.032
67.575,0.013
67.59,0.037
67.605,0.068
67.62,0.203
67.635,0.157
67.65,0.089
67.665,0.219
67.68,0.117
67.695,-0.044
67.71,-0.003
67.725,0.2
67.74,0.076
67.755,0.002
67.77,0.082
67.785,0.057
67.8,0.018
67.815,-0.055
67.83,-0.125
67.845,-0.035
67.86,0.011
67.875,0.046
67.89,0.002
67.905,0.005
67.92,0.139
67.935,0.074
67.95,-0.098
67.965,0.025
67.98,-0.018
67.995,-0.044
68.01,0.037
68.025,0.07
68.04,0.026
68.055,0.013
68.07,0.062
68.085,-0.091
68.1,-0.185
68.115,-0.024
68.13,0.124
68.145,0.075
68.16,-0.02
68.175,-0.07
68.19,0.022
68.205,0.147
68.22,0.236
68.235,0.02
68.25,-0.008
68.265,-0.133
68.28,-0.143
68.295,-0.045
68.31,-0.11
68.325,-0.084
68.34,0.061
68.355,0.23
68.37,0.203
68.385,0.139
68.4,0.107
68.415,0.037
68.43,0.034
68.445,-0.013
68.46,-0.027
68.475,0.097
68.49,0.119
68.505,-0.055
68.52,-0.058
68.535,0.14
68.55,0.125
68.565,0.065
68.58,0.165
68.595,0.31
68.61,0.175
68.625,-0.003
68.64,0.088
68.655,0.081
68.67,-0.014
68.685,-0.003
68.7,0.119
68.715,0.137
68.73,-0.01
68.745,0.067
68.76,0.131
68.775,0.133
68.79,0.009
68.805,-0.031
68.82,0.26
68.835,0.201
68.85,0.122
68.865,0.012
68.88,0.143
68.895,0.194
68.91,0.135
68.925,0.188
68.94,0.305
68.955,0.253
68.97,0.188
68.985,0.13
69,0.202
69.015,0.095
69.03,0.076
69.045,0.213
69.06,0.224
69.075,0.193
69.09,0.312
69.105,0.176
69.12,0.126
69.135,0.073
69.15,0.073
69.165,0.079
69.18,-0.023
69.195,0.114
69.21,0.163
69.225,0.092
69.24,0.126
69.255,0.144
69.27,0.159
69.285,0.209
69.3,0.327
69.315,0.173
69.33,0.106
69.345,0.234
69.36,0.228
69.375,0.118
69.39,0.083
69.405,0.213
69.42,0.267
69.435,0.316
69.45,0.319
69.465,0.249
69.48,0.263
69.495,0.131
69.51,0.242
69.525,0.357
69.54,0.336
69.555,0.267
69.57,0.33
69.585,0.304
69.6,0.249
69.615,0.19
69.63,0.215
69.645,0.294
69.66,0.317
69.675,0.352
69.69,0.287
69.705,0.277
69.72,0.388
69.735,0.269
69.75,0.243
69.765,0.291
69.78,0.19
69.795,0.207
69.81,0.234
69.825,0.253
69.84,0.222
69.855,0.225
69.87,0.312
69.885,0.281
69.9,0.274
69.915,0.292
69.93,0.35
69.945,0.294
69.96,0.306
69.975,0.26
69.99,0.253
70.005,0.395
70.02,0.459
70.035,0.58
70.05,0.449
70.065,0.447
70.08,0.421
70.095,0.403
70.11,0.305
70.125,0.295
70.14,0.333
70.155,0.227
70.17,0.369
70.185,0.479
70.2,0.32
70.215,0.294
70.23,0.33
70.245,0.41
70.26,0.352
70.275,0.442
70.29,0.502
70.305,0.578
70.32,0.568
70.335,0.529
70.35,0.51
70.365,0.631
70.38,0.626
70.395,0.553
70.41,0.451
70.425,0.514
70.44,0.428
70.455,0.399
70.47,0.503
70.485,0.41
70.5,0.271
70.515,0.445
70.53,0.471
70.545,0.469
70.56,0.468
70.575,0.419
70.59,0.589
70.605,0.602
70.62,0.631
70.635,0.88
70.65,0.763
70.665,0.529
70.68,0.554
70.695,0.625
70.71,0.54
70.725,0.482
70.74,0.615
70.755,0.689
70.77,0.774
70.785,0.901
70.8,0.928
70.815,0.889
70.83,0.775
70.845,0.792
70.86,0.69
70.875,0.712
70.89,0.78
70.905,0.758
70.92,0.733
70.935,0.777
70.95,0.667
70.965,0.662
70.98,0.788
70.995,0.811
71.01,0.818
71.025,0.836
71.04,0.78
71.055,0.84
71.07,0.978
71.085,0.946
71.1,1.039
71.115,1.006
71.13,0.956
71.145,1.074
71.16,0.956
71.175,0.951
71.19,0.99
71.205,1.116
71.22,1.078
71.235,0.967
71.25,0.971
71.265,1.038
71.28,1.043
71.295,1.079
71.31,1.133
71.325,1.153
71.34,1.08
71.355,1.036
71.37,1.06
71.385,1.098
71.4,1.141
71.415,1.086
71.43,1.047
71.445,0.94
71.46,1.06
71.475,1.124
71.49,0.956
71.505,0.979
71.52,1.064
71.535,1.063
71.55,0.965
71.565,0.883
71.58,0.894
71.595,1.047
71.61,1.161
71.625,1.127
71.64,1.129
71.655,1.123
71.67,0.94
71.685,0.86
71.7,0.849
71.715,1.026
71.73,1.025
71.745,0.885
71.76,1.005
71.775,1.083
71.79,1.026
71.805,0.983
71.82,0.892
71.835,0.869
71.85,0.864
71.865,0.899
71.88,1.027
71.895,1.269
71.91,1.323
71.925,1.148
71.94,1.132
71.955,1.03
71.97,1.021
71.985,1.088
72,1.082
72.015,1.152
72.03,0.891
72.045,0.87
72.06,1.116
72.075,1.129
72.09,1.101
72.105,1.082
72.12,1.143
72.135,1.229
72.15,1.13
72.165,1.028
72.18,1.075
72.195,1.247
72.21,1.154
72.225,1.152
72.24,1.253
72.255,1.262
72.27,1.237
72.285,1.319
72.3,1.216
72.315,1.181
72.33,1.402
72.345,1.338
72.36,1.282
72.375,1.287
72.39,1.412
72.405,1.273
72.42,1.071
72.435,1.196
72.45,1.292
72.465,1.224
72.48,1.207
72.495,1.247
72.51,1.263
72.525,1.249
72.54,1.164
72.555,1.43
72.57,1.399
72.585,1.423
72.6,1.503
72.615,1.431
72.63,1.437
72.645,1.469
72.66,1.329
72.675,1.345
72.69,1.535
72.705,1.509
72.72,1.493
72.735,1.47
72.75,1.48
72.765,1.513
72.78,1.509
72.795,1.539
72.81,1.389
72.825,1.423
72.84,1.362
72.855,1.515
72.87,1.567
72.885,1.631
72.9,1.541
72.915,1.484
72.93,1.54
72.945,1.655
72.96,1.701
72.975,1.76
72.99,1.557
73.005,1.488
73.02,1.549
73.035,1.583
73.05,1.654
73.065,1.638
73.08,1.71
73.095,1.632
73.11,1.61
73.125,1.601
73.14,1.677
73.155,1.675
73.17,1.574
73.185,1.71
73.2,1.729
73.215,1.706
73.23,1.77
73.245,1.788
73.26,1.772
73.275,1.687
73.29,1.777
73.305,1.762
73.32,1.74
73.335,1.928
73.35,1.966
73.365,1.732
73.38,1.861
73.395,1.989
73.41,1.962
73.425,1.864
73.44,1.924
73.455,1.76
73.47,1.797
73.485,1.93
73.5,2.07
73.515,2.093
73.53,1.962
73.545,2.06
73.56,2.022
73.575,2.056
73.59,2.087
73.605,2.025
73.62,1.798
73.635,1.874
73.65,2.067
73.665,2.156
73.68,2.12
73.695,2.182
73.71,2.25
73.725,2.262
73.74,2.217
73.755,2.207
73.77,2.244
73.785,2.265
73.8,2.25
73.815,2.327
73.83,2.404
73.845,2.501
73.86,2.639
73.875,2.587
73.89,2.525
73.905,2.643
73.92,2.812
73.935,2.633
73.95,2.546
73.965,2.639
73.98,2.679
73.995,2.729
74.01,2.883
74.025,2.813
74.04,2.868
74.055,2.985
74.07,3.041
74.085,2.914
74.1,2.846
74.115,3.022
74.13,2.916
74.145,2.833
74.16,2.928
74.175,3.075
74.19,3.098
74.205,3.021
74.22,2.933
74.235,3.057
74.25,3.169
74.265,3.055
74.28,3.037
74.295,3.002
74.31,3.064
74.325,3.021
74.34,3.037
74.355,2.999
74.37,3.07
74.385,2.978
74.4,2.999
74.415,3.073
74.43,3.133
74.445,3.087
74.46,3.157
74.475,3.119
74.49,3.125
74.505,3.234
74.52,3.213
74.535,3.18
74.55,3.176
74.565,3.122
74.58,2.972
74.595,3.018
74.61,2.996
74.625,2.998
74.64,2.865
74.655,3.041
74.67,3.055
74.685,3.025
74.7,3.25
74.715,3.18
74.73,3.135
74.745,2.961
74.76,2.875
74.775,2.922
74.79,3.007
74.805,3.022
74.82,3.11
74.835,3.165
74.85,3.148
74.865,3.228
74.88,3.23
74.895,3.303
74.91,3.291
74.925,3.209
74.94,3.245
74.955,3.228
74.97,3.194
74.985,3.182
75,3.007
75.015,2.788
75.03,2.895
75.045,2.673
75.06,2.705
75.075,2.679
75.09,2.517
75.105,2.32
75.12,2.419
75.135,2.33
75.15,2.179
75.165,2.12
75.18,2.081
75.195,2.568
75.21,2.541
75.225,2.17
75.24,2.01
75.255,2.039
75.27,2.466
75.285,1.895
75.3,1.962
75.315,1.803
75.33,1.579
75.345,0
