24.99,27.234
25.005,26.929
25.02,26.881
25.035,26.962
25.05,26.937
25.065,27.012
25.08,27.04
25.095,26.981
25.11,26.96
25.125,26.886
25.14,26.974
25.155,27.03
25.17,27.06
25.185,27.025
25.2,26.961
25.215,26.951
25.23,26.948
25.245,26.878
25.26,26.942
25.275,26.88
25.29,26.899
25.305,26.967
25.32,26.954
25.335,26.987
25.35,26.95
25.365,26.96
25.38,26.888
25.395,26.846
25.41,26.877
25.425,26.93
25.44,26.987
25.455,26.905
25.47,26.79
25.485,26.845
25.5,26.859
25.515,26.845
25.53,26.859
25.545,26.891
25.56,26.857
25.575,26.841
25.59,26.912
25.605,26.932
25.62,26.896
25.635,26.85
25.65,26.852
25.665,26.924
25.68,26.891
25.695,26.794
25.71,26.816
25.725,26.816
25.74,26.821
25.755,26.773
25.77,26.7
25.785,26.772
25.8,26.799
25.815,26.741
25.83,26.787
25.845,26.843
25.86,26.778
25.875,26.701
25.89,26.707
25.905,26.748
25.92,26.725
25.935,26.724
25.95,26.701
25.965,26.809
25.98,26.799
25.995,26.763
26.01,26.746
26.025,26.727
26.04,26.708
26.055,26.673
26.07,26.667
26.085,26.682
26.1,26.665
26.115,26.679
26.13,26.698
26.145,26.728
26.16,26.731
26.175,26.657
26.19,26.605
26.205,26.556
26.22,26.577
26.235,26.647
26.25,26.62
26.265,26.541
26.28,26.547
26.295,26.6
26.31,26.647
26.325,26.611
26.34,26.519
26.355,26.511
26.37,26.552
26.385,26.555
26.4,26.536
26.415,26.558
26.43,26.539
26.445,26.532
26.46,26.547
26.475,26.484
26.49,26.463
26.505,26.468
26.52,26.479
26.535,26.452
26.55,26.429
26.565,26.427
26.58,26.447
26.595,26.433
26.61,26.441
26.625,26.441
26.64,26.422
26.655,26.378
26.67,26.362
26.685,26.332
26.7,26.38
26.715,26.406
26.73,26.37
26.745,26.346
26.76,26.334
26.775,26.323
26.79,26.339
26.805,26.389
26.82,26.394
26.835,26.296
26.85,26.272
26.865,26.332
26.88,26.371
26.895,26.33
26.91,26.259
26.925,26.232
26.94,26.245
26.955,26.215
26.97,26.212
26.985,26.185
27,26.225
27.015,26.265
27.03,26.219
27.045,26.191
27.06,26.178
27.075,26.193
27.09,26.209
27.105,26.192
27.12,26.16
27.135,26.166
27.15,26.208
27.165,26.216
27.18,26.226
27.195,26.163
27.21,26.075
27.225,26.088
27.24,26.151
27.255,26.16
27.27,26.086
27.285,26.132
27.3,26.192
27.315,26.17
27.33,26.102
27.345,26.08
27.36,26.073
27.375,26.093
27.39,26.072
27.405,26.052
27.42,26.069
27.435,26.058
27.45,26.057
27.465,26.044
27.48,26.061
27.495,26.088
27.51,26.088
27.525,26.075
27.54,26.075
27.555,26.064
27.57,26.053
27.585,26.005
27.6,25.985
27.615,25.989
27.63,26.016
27.645,26.022
27.66,26.01
27.675,26.008
27.69,25.981
27.705,25.951
27.72,26.011
27.735,26.009
27.75,25.99
27.765,25.982
27.78,25.979
27.795,25.959
27.81,25.959
27.825,25.991
27.84,26.001
27.855,25.997
27.87,25.946
27.885,25.972
27.9,26.027
27.915,25.959
27.93,25.931
27.945,25.959
27.96,25.937
27.975,25.973
27.99,25.985
28.005,26.004
28.02,25.962
28.035,26.027
28.05,26.044
28.065,26.036
28.08,26.028
28.095,26.002
28.11,26.004
28.125,26.015
28.14,26.014
28.155,25.962
28.17,25.943
28.185,26.027
28.2,26.014
28.215,26.034
28.23,25.968
28.245,25.967
28.26,26.027
28.275,26.008
28.29,25.973
28.305,25.98
28.32,26.024
28.335,25.99
28.35,25.982
28.365,26
28.38,25.956
28.395,25.992
28.41,26.024
28.425,25.952
28.44,25.943
28.455,26.014
28.47,26.054
28.485,26.042
28.5,26.019
28.515,26.044
28.53,26.016
28.545,26.036
28.56,26.04
28.575,25.981
28.59,25.926
28.605,25.955
28.62,26.035
28.635,26.046
28.65,26.03
28.665,26.04
28.68,26.038
28.695,26.041
28.71,26.082
28.725,26.055
28.74,26.052
28.755,26.033
28.77,26.024
28.785,26.039
28.8,26.047
28.815,26.068
28.83,26.055
28.845,26.033
28.86,26.018
28.875,26.029
28.89,26.025
28.905,26.029
28.92,26.056
28.935,26.037
28.95,26.063
28.965,26.085
28.98,26.021
28.995,26.029
29.01,26.031
29.025,26.045
29.04,26.038
29.055,26.004
29.07,26.002
29.085,26.063
29.1,26.038
29.115,26.07
29.13,26.139
29.145,26.187
29.16,26.123
29.175,26.052
29.19,26.1
29.205,26.05
29.22,26.046
29.235,26.104
29.25,26.129
29.265,26.112
29.28,26.129
29.295,26.149
29.31,26.094
29.325,26.114
29.34,26.094
29.355,26.151
29.37,26.132
29.385,26.145
29.4,26.175
29.415,26.165
29.43,26.114
29.445,26.172
29.46,26.239
29.475,26.216
29.49,26.183
29.505,26.205
29.52,26.261
29.535,26.259
29.55,26.268
29.565,26.299
29.58,26.316
29.595,26.409
29.61,26.493
29.625,26.473
29.64,26.51
29.655,26.576
29.67,26.636
29.685,26.733
29.7,26.773
29.715,26.863
29.73,26.91
29.745,26.986
29.76,27.033
29.775,27.114
29.79,27.263
29.805,27.32
29.82,27.375
29.835,27.508
29.85,27.657
29.865,27.744
29.88,27.843
29.895,27.909
29.91,27.984
29.925,28.084
29.94,28.223
29.955,28.322
29.97,28.431
29.985,28.491
30,28.551
30.015,28.621
30.03,28.68
30.045,28.758
30.06,28.842
30.075,28.917
30.09,28.911
30.105,28.936
30.12,28.983
30.135,29.024
30.15,29.011
30.165,28.98
30.18,28.95
30.195,28.942
30.21,28.874
30.225,28.847
30.24,28.798
30.255,28.785
30.27,28.729
30.285,28.639
30.3,28.602
30.315,28.514
30.33,28.411
30.345,28.264
30.36,28.156
30.375,28.106
30.39,28.015
30.405,27.951
30.42,27.855
30.435,27.738
30.45,27.661
30.465,27.585
30.48,27.475
30.495,27.387
30.51,27.309
30.525,27.202
30.54,27.128
30.555,27.071
30.57,26.958
30.585,26.882
30.6,26.821
30.615,26.795
30.63,26.773
30.645,26.69
30.66,26.618
30.675,26.565
30.69,26.5
30.705,26.454
30.72,26.396
30.735,26.362
30.75,26.325
30.765,26.283
30.78,26.311
30.795,26.289
30.81,26.227
30.825,26.177
30.84,26.182
30.855,26.243
30.87,26.228
30.885,26.124
30.9,26.114
30.915,26.138
30.93,26.083
30.945,26.041
30.96,26.129
30.975,26.107
30.99,26.053
31.005,26.064
31.02,26.077
31.035,26.013
31.05,26.027
31.065,26.048
31.08,26.07
31.095,26.066
31.11,26.046
31.125,26.028
31.14,26.034
31.155,26.021
31.17,26.025
31.185,25.999
31.2,26.026
31.215,26.032
31.23,26.014
31.245,26.009
31.26,26.032
31.275,26.022
31.29,26.015
31.305,26.015
31.32,26.021
31.335,26.056
31.35,26.023
31.365,25.998
31.38,26.021
31.395,25.965
31.41,26.009
31.425,26.014
31.44,26.008
31.455,25.99
31.47,25.984
31.485,25.998
31.5,26.015
31.515,26.008
31.53,25.993
31.545,26.05
31.56,25.987
31.575,25.924
31.59,25.955
31.605,25.993
31.62,26.009
31.635,26.003
31.65,26.022
31.665,26
31.68,26.005
31.695,26.008
31.71,25.982
31.725,26.01
31.74,26.01
31.755,26.003
31.77,25.967
31.785,25.965
31.8,25.988
31.815,25.962
31.83,25.966
31.845,25.972
31.86,25.973
31.875,25.939
31.89,25.977
31.905,25.982
31.92,25.991
31.935,25.994
31.95,25.999
31.965,25.986
31.98,25.943
31.995,25.981
32.01,26.031
32.025,25.963
32.04,25.955
32.055,25.912
32.07,25.942
32.085,25.943
32.1,25.913
32.115,25.984
32.13,25.985
32.145,25.967
32.16,25.998
32.175,25.941
32.19,25.923
32.205,25.91
32.22,25.954
32.235,25.939
32.25,25.953
32.265,25.964
32.28,25.95
32.295,25.948
32.31,25.979
32.325,25.948
32.34,25.959
32.355,25.976
32.37,25.936
32.385,26.006
32.4,26.002
32.415,25.941
32.43,25.963
32.445,25.89
32.46,25.947
32.475,25.954
32.49,25.925
32.505,25.935
32.52,25.949
32.535,25.952
32.55,25.939
32.565,25.913
32.58,25.979
32.595,25.973
32.61,25.926
32.625,25.933
32.64,25.948
32.655,25.911
32.67,25.921
32.685,25.943
32.7,25.945
32.715,25.946
32.73,25.91
32.745,25.902
32.76,25.914
32.775,25.94
32.79,25.935
32.805,25.973
32.82,25.971
32.835,25.927
32.85,25.879
32.865,25.898
32.88,25.903
32.895,25.904
32.91,25.93
32.925,25.953
32.94,25.984
32.955,25.952
32.97,25.89
32.985,25.898
33,25.9
33.015,25.874
33.03,25.877
33.045,25.892
33.06,25.899
33.075,25.938
33.09,25.941
33.105,25.999
33.12,25.957
33.135,25.935
33.15,25.921
33.165,25.924
33.18,25.909
33.195,25.916
33.21,25.951
33.225,25.962
33.24,25.965
33.255,25.968
33.27,25.932
33.285,25.962
33.3,25.924
33.315,25.881
33.33,25.924
33.345,25.938
33.36,25.993
33.375,25.985
33.39,25.95
33.405,25.961
33.42,25.99
33.435,26.015
33.45,26
33.465,26.002
33.48,26.011
33.495,25.985
33.51,25.981
33.525,25.948
33.54,25.947
33.555,25.951
33.57,25.938
33.585,25.983
33.6,26.001
33.615,26.004
33.63,26.007
33.645,25.995
33.66,25.975
33.675,25.975
33.69,25.95
33.705,25.956
33.72,25.984
33.735,26.009
33.75,26.007
33.765,26.029
33.78,26.024
33.795,26.008
33.81,26.034
33.825,26.033
33.84,26.044
33.855,26.021
33.87,26.029
33.885,26.017
33.9,26.007
33.915,26.013
33.93,26.04
33.945,26.065
33.96,26.073
33.975,26.077
33.99,26.063
34.005,26.042
34.02,26.043
34.035,26.036
34.05,26.045
34.065,26.011
34.08,26.065
34.095,26.073
34.11,26.104
34.125,26.102
34.14,26.089
34.155,26.089
34.17,26.083
34.185,26.137
34.2,26.178
34.215,26.15
34.23,26.103
34.245,26.161
34.26,26.183
34.275,26.161
34.29,26.147
34.305,26.18
34.32,26.235
34.335,26.223
34.35,26.156
34.365,26.272
34.38,26.255
34.395,26.261
34.41,26.229
34.425,26.271
34.44,26.244
34.455,26.235
34.47,26.308
34.485,26.331
34.5,26.328
34.515,26.364
34.53,26.345
34.545,26.351
34.56,26.362
34.575,26.383
34.59,26.415
34.605,26.433
34.62,26.445
34.635,26.443
34.65,26.411
34.665,26.393
34.68,26.428
34.695,26.466
34.71,26.434
34.725,26.462
34.74,26.54
34.755,26.541
34.77,26.589
34.785,26.617
34.8,26.616
34.815,26.65
34.83,26.727
34.845,26.801
34.86,26.832
34.875,26.879
34.89,26.957
34.905,27.044
34.92,27.128
34.935,27.216
34.95,27.29
34.965,27.379
34.98,27.523
34.995,27.698
35.01,27.877
35.025,28.077
35.04,28.228
35.055,28.359
35.07,28.556
35.085,28.821
35.1,29.02
35.115,29.232
35.13,29.465
35.145,29.687
35.16,29.972
35.175,30.298
35.19,30.539
35.205,30.857
35.22,31.176
35.235,31.487
35.25,31.765
35.265,32.083
35.28,32.425
35.295,32.684
35.31,32.958
35.325,33.22
35.34,33.507
35.355,33.774
35.37,34.05
35.385,34.257
35.4,34.454
35.415,34.63
35.43,34.806
35.445,34.944
35.46,35.045
35.475,35.116
35.49,35.085
35.505,35.123
35.52,35.135
35.535,34.984
35.55,34.937
35.565,34.902
35.58,34.812
35.595,34.654
35.61,34.502
35.625,34.321
35.64,34.135
35.655,33.925
35.67,33.665
35.685,33.421
35.7,33.179
35.715,32.915
35.73,32.652
35.745,32.437
35.76,32.115
35.775,31.785
35.79,31.589
35.805,31.334
35.82,31.071
35.835,30.821
35.85,30.548
35.865,30.252
35.88,29.999
35.895,29.746
35.91,29.518
35.925,29.253
35.94,29.082
35.955,28.846
35.97,28.635
35.985,28.401
36,28.204
36.015,28.017
36.03,27.843
36.045,27.691
36.06,27.505
36.075,27.388
36.09,27.285
36.105,27.119
36.12,27.012
36.135,26.955
36.15,26.815
36.165,26.702
36.18,26.691
36.195,26.607
36.21,26.518
36.225,26.477
36.24,26.423
36.255,26.413
36.27,26.359
36.285,26.311
36.3,26.267
36.315,26.275
36.33,26.243
36.345,26.171
36.36,26.214
36.375,26.143
36.39,26.142
36.405,26.128
36.42,26.119
36.435,26.106
36.45,26.102
36.465,26.119
36.48,26.114
36.495,26.073
36.51,26.029
36.525,26.089
36.54,26.106
36.555,26.083
36.57,26.054
36.585,26.08
36.6,26.071
36.615,26.065
36.63,26.055
36.645,26.039
36.66,26.034
36.675,26.023
36.69,26.047
36.705,26.043
36.72,26.073
36.735,26.023
36.75,25.932
36.765,25.991
36.78,26.028
36.795,26.079
36.81,26.173
36.825,26.199
36.84,26.154
36.855,26.044
36.87,26.051
36.885,26.092
36.9,26.144
36.915,26.165
36.93,26.211
36.945,26.223
36.96,26.209
36.975,26.192
36.99,26.171
37.005,26.149
37.02,26.204
37.035,26.189
37.05,26.233
37.065,26.247
37.08,26.241
37.095,26.169
37.11,26.179
37.125,26.201
37.14,26.183
37.155,26.179
37.17,26.165
37.185,26.163
37.2,26.178
37.215,26.184
37.23,26.135
37.245,26.054
37.26,26.023
37.275,26.051
37.29,26.066
37.305,26.003
37.32,25.968
37.335,25.991
37.35,25.989
37.365,25.965
37.38,25.916
37.395,25.89
37.41,25.865
37.425,25.841
37.44,25.82
37.455,25.833
37.47,25.81
37.485,25.813
37.5,25.816
37.515,25.772
37.53,25.769
37.545,25.751
37.56,25.732
37.575,25.732
37.59,25.708
37.605,25.683
37.62,25.666
37.635,25.69
37.65,25.688
37.665,25.652
37.68,25.627
37.695,25.611
37.71,25.629
37.725,25.618
37.74,25.638
37.755,25.636
37.77,25.596
37.785,25.562
37.8,25.577
37.815,25.57
37.83,25.572
37.845,25.539
37.86,25.574
37.875,25.56
37.89,25.536
37.905,25.586
37.92,25.592
37.935,25.533
37.95,25.566
37.965,25.612
37.98,25.556
37.995,25.529
38.01,25.535
38.025,25.508
38.04,25.498
38.055,25.567
38.07,25.567
38.085,25.509
38.1,25.5
38.115,25.492
38.13,25.444
38.145,25.505
38.16,25.58
38.175,25.552
38.19,25.497
38.205,25.54
38.22,25.533
38.235,25.553
38.25,25.534
38.265,25.497
38.28,25.509
38.295,25.481
38.31,25.47
38.325,25.503
38.34,25.479
38.355,25.466
38.37,25.507
38.385,25.465
38.4,25.499
38.415,25.535
38.43,25.45
38.445,25.467
38.46,25.464
38.475,25.465
38.49,25.457
38.505,25.446
38.52,25.477
38.535,25.476
38.55,25.504
38.565,25.481
38.58,25.44
38.595,25.463
38.61,25.476
38.625,25.454
38.64,25.439
38.655,25.425
38.67,25.41
38.685,25.481
38.7,25.495
38.715,25.493
38.73,25.447
38.745,25.501
38.76,25.487
38.775,25.411
38.79,25.419
38.805,25.469
38.82,25.417
38.835,25.412
38.85,25.437
38.865,25.406
38.88,25.458
38.895,25.42
38.91,25.452
38.925,25.515
38.94,25.496
38.955,25.449
38.97,25.455
38.985,25.398
39,25.401
39.015,25.421
39.03,25.435
39.045,25.427
39.06,25.463
39.075,25.45
39.09,25.419
39.105,25.393
39.12,25.404
39.135,25.396
39.15,25.413
39.165,25.433
39.18,25.449
39.195,25.441
39.21,25.44
39.225,25.442
39.24,25.377
39.255,25.338
39.27,25.376
39.285,25.391
39.3,25.444
39.315,25.401
39.33,25.348
39.345,25.4
39.36,25.447
39.375,25.395
39.39,25.352
39.405,25.398
39.42,25.395
39.435,25.395
39.45,25.409
39.465,25.395
39.48,25.376
39.495,25.39
39.51,25.385
39.525,25.415
39.54,25.422
39.555,25.396
39.57,25.4
39.585,25.345
39.6,25.409
39.615,25.404
39.63,25.367
39.645,25.347
39.66,25.324
39.675,25.328
39.69,25.411
39.705,25.453
39.72,25.39
39.735,25.367
39.75,25.354
39.765,25.397
39.78,25.337
39.795,25.311
39.81,25.321
39.825,25.375
39.84,25.381
39.855,25.365
39.87,25.376
39.885,25.347
39.9,25.352
39.915,25.352
39.93,25.374
39.945,25.302
39.96,25.261
39.975,25.325
39.99,25.3
40.005,25.322
40.02,25.363
40.035,25.349
40.05,25.322
40.065,25.326
40.08,25.352
40.095,25.286
40.11,25.315
40.125,25.37
40.14,25.35
40.155,25.359
40.17,25.354
40.185,25.369
40.2,25.357
40.215,25.346
40.23,25.315
40.245,25.287
40.26,25.306
40.275,25.343
40.29,25.277
40.305,25.275
40.32,25.306
40.335,25.278
40.35,25.26
40.365,25.283
40.38,25.287
40.395,25.306
40.41,25.284
40.425,25.313
40.44,25.329
40.455,25.329
40.47,25.311
40.485,25.322
40.5,25.261
40.515,25.292
40.53,25.309
40.545,25.299
40.56,25.346
40.575,25.338
40.59,25.269
40.605,25.287
40.62,25.3
40.635,25.334
40.65,25.362
40.665,25.364
40.68,25.323
40.695,25.31
40.71,25.27
40.725,25.281
40.74,25.318
40.755,25.306
40.77,25.344
40.785,25.313
40.8,25.246
40.815,25.241
40.83,25.227
40.845,25.231
40.86,25.298
40.875,25.285
40.89,25.272
40.905,25.268
40.92,25.276
40.935,25.278
40.95,25.277
40.965,25.284
40.98,25.283
40.995,25.343
41.01,25.35
41.025,25.357
41.04,25.32
41.055,25.295
41.07,25.305
41.085,25.243
41.1,25.269
41.115,25.327
41.13,25.282
41.145,25.235
41.16,25.31
41.175,25.296
41.19,25.286
41.205,25.287
41.22,25.233
41.235,25.287
41.25,25.227
41.265,25.193
41.28,25.252
41.295,25.266
41.31,25.249
41.325,25.255
41.34,25.286
41.355,25.313
41.37,25.337
41.385,25.296
41.4,25.303
41.415,25.295
41.43,25.231
41.445,25.252
41.46,25.235
41.475,25.249
41.49,25.239
41.505,25.255
41.52,25.279
41.535,25.321
41.55,25.29
41.565,25.262
41.58,25.303
41.595,25.293
41.61,25.302
41.625,25.233
41.64,25.263
41.655,25.258
41.67,25.235
41.685,25.24
41.7,25.261
41.715,25.228
41.73,25.257
41.745,25.253
41.76,25.247
41.775,25.274
41.79,25.297
41.805,25.266
41.82,25.281
41.835,25.252
41.85,25.232
41.865,25.303
41.88,25.295
41.895,25.273
41.91,25.262
41.925,25.29
41.94,25.26
41.955,25.252
41.97,25.257
41.985,25.256
42,25.242
42.015,25.268
42.03,25.327
42.045,25.322
42.06,25.239
42.075,25.289
42.09,25.311
42.105,25.266
42.12,25.276
42.135,25.303
42.15,25.302
42.165,25.319
42.18,25.289
42.195,25.249
42.21,25.283
42.225,25.322
42.24,25.282
42.255,25.301
42.27,25.336
42.285,25.274
42.3,25.281
42.315,25.329
42.33,25.342
42.345,25.342
42.36,25.321
42.375,25.283
42.39,25.321
42.405,25.362
42.42,25.377
42.435,25.403
42.45,25.374
42.465,25.37
42.48,25.365
42.495,25.366
42.51,25.401
42.525,25.404
42.54,25.43
42.555,25.448
42.57,25.457
42.585,25.438
42.6,25.49
42.615,25.484
42.63,25.479
42.645,25.538
42.66,25.528
42.675,25.543
42.69,25.591
42.705,25.658
42.72,25.72
42.735,25.764
42.75,25.801
42.765,25.819
42.78,25.831
42.795,25.901
42.81,25.929
42.825,25.914
42.84,25.99
42.855,26.045
42.87,26.14
42.885,26.237
42.9,26.277
42.915,26.313
42.93,26.351
42.945,26.433
42.96,26.498
42.975,26.544
42.99,26.642
43.005,26.666
43.02,26.709
43.035,26.747
43.05,26.801
43.065,26.828
43.08,26.874
43.095,26.93
43.11,26.93
43.125,26.913
43.14,26.924
43.155,26.972
43.17,26.947
43.185,26.953
43.2,26.928
43.215,26.906
43.23,26.893
43.245,26.866
43.26,26.857
43.275,26.782
43.29,26.722
43.305,26.668
43.32,26.636
43.335,26.597
43.35,26.642
43.365,26.581
43.38,26.449
43.395,26.417
43.41,26.415
43.425,26.363
43.44,26.262
43.455,26.199
43.47,26.169
43.485,26.155
43.5,26.071
43.515,26.039
43.53,25.997
43.545,25.928
43.56,25.864
43.575,25.78
43.59,25.718
43.605,25.685
43.62,25.666
43.635,25.647
43.65,25.587
43.665,25.586
43.68,25.556
43.695,25.49
43.71,25.452
43.725,25.466
43.74,25.459
43.755,25.416
43.77,25.337
43.785,25.294
43.8,25.294
43.815,25.276
43.83,25.237
43.845,25.251
43.86,25.235
43.875,25.212
43.89,25.223
43.905,25.224
43.92,25.23
43.935,25.209
43.95,25.185
43.965,25.211
43.98,25.182
43.995,25.202
44.01,25.172
44.025,25.131
44.04,25.153
44.055,25.168
44.07,25.148
44.085,25.121
44.1,25.143
44.115,25.113
44.13,25.116
44.145,25.118
44.16,25.101
44.175,25.136
44.19,25.115
44.205,25.047
44.22,25.05
44.235,25.076
44.25,25.081
44.265,25.094
44.28,25.118
44.295,25.114
44.31,25.063
44.325,25.035
44.34,25.071
44.355,25.056
44.37,25.09
44.385,25.069
44.4,25.06
44.415,25.089
44.43,25.089
44.445,25.037
44.46,25.042
44.475,25.02
44.49,25.031
44.505,25.035
44.52,25.043
44.535,25.085
44.55,25.048
44.565,24.977
44.58,25.01
44.595,25.009
44.61,24.985
44.625,24.987
44.64,25.033
44.655,25.038
44.67,25.015
44.685,25.011
44.7,25.042
44.715,25.066
44.73,25.032
44.745,25.016
44.76,25.07
44.775,25.05
44.79,25.059
44.805,25.009
44.82,24.999
44.835,25.014
44.85,25.003
44.865,25.016
44.88,25.034
44.895,25.051
44.91,25.049
44.925,24.983
44.94,24.978
44.955,24.985
44.97,25.003
44.985,24.976
45,24.942
45.015,25.008
45.03,25.044
45.045,25.059
45.06,25.001
45.075,24.987
45.09,24.992
45.105,24.999
45.12,24.973
45.135,24.94
45.15,24.987
45.165,25.013
45.18,24.979
45.195,24.987
45.21,25.012
45.225,24.981
45.24,24.948
45.255,24.985
45.27,24.984
45.285,24.982
45.3,25.022
45.315,24.954
45.33,24.909
45.345,24.903
45.36,24.899
45.375,24.888
45.39,24.962
45.405,24.945
45.42,24.958
45.435,24.977
45.45,24.953
45.465,24.92
45.48,24.913
45.495,24.911
45.51,24.94
45.525,24.926
45.54,24.932
45.555,24.93
45.57,24.952
45.585,24.974
45.6,24.895
45.615,24.935
45.63,24.965
45.645,24.94
45.66,24.95
45.675,24.942
45.69,24.941
45.705,24.873
45.72,24.87
45.735,24.946
45.75,24.891
45.765,24.89
45.78,24.909
45.795,24.939
45.81,24.955
45.825,24.901
45.84,24.94
45.855,24.925
45.87,24.911
45.885,24.941
45.9,24.958
45.915,24.949
45.93,24.943
45.945,24.879
45.96,24.87
45.975,24.907
45.99,24.888
46.005,24.904
46.02,24.895
46.035,24.871
46.05,24.867
46.065,24.883
46.08,24.898
46.095,24.902
46.11,24.878
46.125,24.88
46.14,24.885
46.155,24.888
46.17,24.891
46.185,24.887
46.2,24.902
46.215,24.891
46.23,24.898
46.245,24.88
46.26,24.89
46.275,24.932
46.29,24.879
46.305,24.888
46.32,24.924
46.335,24.884
46.35,24.876
46.365,24.902
46.38,24.888
46.395,24.886
46.41,24.87
46.425,24.854
46.44,24.858
46.455,24.853
46.47,24.866
46.485,24.866
46.5,24.815
46.515,24.86
46.53,24.899
46.545,24.931
46.56,24.936
46.575,24.904
46.59,24.877
46.605,24.829
46.62,24.883
46.635,24.901
46.65,24.856
46.665,24.888
46.68,24.89
46.695,24.905
46.71,24.907
46.725,24.89
46.74,24.887
46.755,24.885
46.77,24.83
46.785,24.821
46.8,24.857
46.815,24.888
46.83,24.851
46.845,24.85
46.86,24.861
46.875,24.823
46.89,24.852
46.905,24.864
46.92,24.834
46.935,24.876
46.95,24.863
46.965,24.841
46.98,24.827
46.995,24.859
47.01,24.886
47.025,24.849
47.04,24.832
47.055,24.816
47.07,24.842
47.085,24.848
47.1,24.829
47.115,24.854
47.13,24.821
47.145,24.841
47.16,24.896
47.175,24.879
47.19,24.809
47.205,24.809
47.22,24.836
47.235,24.857
47.25,24.865
47.265,24.829
47.28,24.838
47.295,24.861
47.31,24.837
47.325,24.845
47.34,24.868
47.355,24.909
47.37,24.857
47.385,24.858
47.4,24.839
47.415,24.786
47.43,24.766
47.445,24.79
47.46,24.8
47.475,24.845
47.49,24.85
47.505,24.827
47.52,24.815
47.535,24.828
47.55,24.847
47.565,24.81
47.58,24.817
47.595,24.808
47.61,24.796
47.625,24.809
47.64,24.817
47.655,24.856
47.67,24.835
47.685,24.812
47.7,24.821
47.715,24.838
47.73,24.819
47.745,24.796
47.76,24.778
47.775,24.82
47.79,24.769
47.805,24.788
47.82,24.79
47.835,24.779
47.85,24.789
47.865,24.873
47.88,24.87
47.895,24.812
47.91,24.837
47.925,24.825
47.94,24.761
47.955,24.73
47.97,24.762
47.985,24.805
48,24.781
48.015,24.783
48.03,24.815
48.045,24.804
48.06,24.794
48.075,24.784
48.09,24.733
48.105,24.783
48.12,24.77
48.135,24.764
48.15,24.8
48.165,24.8
48.18,24.803
48.195,24.776
48.21,24.747
48.225,24.72
48.24,24.736
48.255,24.732
48.27,24.736
48.285,24.794
48.3,24.772
48.315,24.754
48.33,24.747
48.345,24.751
48.36,24.761
48.375,24.782
48.39,24.767
48.405,24.786
48.42,24.82
48.435,24.789
48.45,24.8
48.465,24.777
48.48,24.745
48.495,24.757
48.51,24.767
48.525,24.709
48.54,24.744
48.555,24.739
48.57,24.718
48.585,24.731
48.6,24.729
48.615,24.749
48.63,24.742
48.645,24.72
48.66,24.724
48.675,24.741
48.69,24.752
48.705,24.763
48.72,24.764
48.735,24.744
48.75,24.737
48.765,24.688
48.78,24.716
48.795,24.708
48.81,24.746
48.825,24.743
48.84,24.714
48.855,24.692
48.87,24.714
48.885,24.721
48.9,24.781
48.915,24.755
48.93,24.761
48.945,24.761
48.96,24.753
48.975,24.742
48.99,24.7
49.005,24.668
49.02,24.705
49.035,24.709
49.05,24.701
49.065,24.678
49.08,24.694
49.095,24.688
49.11,24.704
49.125,24.728
49.14,24.726
49.155,24.74
49.17,24.781
49.185,24.741
49.2,24.71
49.215,24.741
49.23,24.724
49.245,24.707
49.26,24.758
49.275,24.772
49.29,24.726
49.305,24.729
49.32,24.765
49.335,24.748
49.35,24.733
49.365,24.73
49.38,24.693
49.395,24.728
49.41,24.732
49.425,24.758
49.44,24.753
49.455,24.715
49.47,24.659
49.485,24.697
49.5,24.756
49.515,24.773
49.53,24.76
49.545,24.727
49.56,24.731
49.575,24.752
49.59,24.74
49.605,24.727
49.62,24.741
49.635,24.701
49.65,24.689
49.665,24.706
49.68,24.716
49.695,24.709
49.71,24.663
49.725,24.654
49.74,24.683
49.755,24.685
49.77,24.669
49.785,24.712
49.8,24.745
49.815,24.756
49.83,24.742
49.845,24.733
49.86,24.753
49.875,24.696
49.89,24.648
49.905,24.676
49.92,24.69
49.935,24.665
49.95,24.671
49.965,24.688
49.98,24.737
49.995,24.712
50.01,24.695
50.025,24.651
50.04,24.679
50.055,24.678
50.07,24.665
50.085,24.7
50.1,24.719
50.115,24.786
50.13,24.759
50.145,24.694
50.16,24.717
50.175,24.68
50.19,24.695
50.205,24.67
50.22,24.697
50.235,24.713
50.25,24.663
50.265,24.669
50.28,24.677
50.295,24.612
50.31,24.646
50.325,24.651
50.34,24.675
50.355,24.65
50.37,24.66
50.385,24.681
50.4,24.676
50.415,24.657
50.43,24.704
50.445,24.749
50.46,24.681
50.475,24.68
50.49,24.685
50.505,24.706
50.52,24.686
50.535,24.692
50.55,24.661
50.565,24.628
50.58,24.61
50.595,24.624
50.61,24.642
50.625,24.658
50.64,24.623
50.655,24.646
50.67,24.68
50.685,24.679
50.7,24.674
50.715,24.649
50.73,24.613
50.745,24.604
50.76,24.658
50.775,24.674
50.79,24.64
50.805,24.646
50.82,24.644
50.835,24.671
50.85,24.632
50.865,24.59
50.88,24.654
50.895,24.656
50.91,24.566
50.925,24.581
50.94,24.616
50.955,24.646
50.97,24.65
50.985,24.649
51,24.659
51.015,24.662
51.03,24.673
51.045,24.666
51.06,24.609
51.075,24.602
51.09,24.597
51.105,24.608
51.12,24.665
51.135,24.652
51.15,24.62
51.165,24.569
51.18,24.608
51.195,24.638
51.21,24.632
51.225,24.646
51.24,24.646
51.255,24.603
51.27,24.657
51.285,24.639
51.3,24.623
51.315,24.599
51.33,24.584
51.345,24.608
51.36,24.588
51.375,24.569
51.39,24.613
51.405,24.65
51.42,24.674
51.435,24.656
51.45,24.614
51.465,24.626
51.48,24.616
51.495,24.645
51.51,24.655
51.525,24.615
51.54,24.604
51.555,24.581
51.57,24.585
51.585,24.613
51.6,24.654
51.615,24.657
51.63,24.622
51.645,24.628
51.66,24.641
51.675,24.606
51.69,24.59
51.705,24.653
51.72,24.646
51.735,24.574
51.75,24.567
51.765,24.622
51.78,24.616
51.795,24.623
51.81,24.567
51.825,24.547
51.84,24.575
51.855,24.597
51.87,24.623
51.885,24.642
51.9,24.652
51.915,24.635
51.93,24.611
51.945,24.562
51.96,24.619
51.975,24.62
51.99,24.593
52.005,24.626
52.02,24.659
52.035,24.661
52.05,24.663
52.065,24.632
52.08,24.611
52.095,24.588
52.11,24.533
52.125,24.556
52.14,24.581
52.155,24.584
52.17,24.621
52.185,24.648
52.2,24.61
52.215,24.598
52.23,24.601
52.245,24.602
52.26,24.577
52.275,24.617
52.29,24.645
52.305,24.631
52.32,24.669
52.335,24.664
52.35,24.601
52.365,24.599
52.38,24.595
52.395,24.58
52.41,24.538
52.425,24.534
52.44,24.599
52.455,24.667
52.47,24.65
52.485,24.662
52.5,24.634
52.515,24.661
52.53,24.683
52.545,24.626
52.56,24.554
52.575,24.6
52.59,24.653
52.605,24.646
52.62,24.655
52.635,24.637
52.65,24.614
52.665,24.61
52.68,24.593
52.695,24.593
52.71,24.619
52.725,24.608
52.74,24.571
52.755,24.608
52.77,24.633
52.785,24.658
52.8,24.653
52.815,24.605
52.83,24.607
52.845,24.658
52.86,24.632
52.875,24.658
52.89,24.686
52.905,24.701
52.92,24.656
52.935,24.677
52.95,24.656
52.965,24.709
52.98,24.741
52.995,24.692
53.01,24.699
53.025,24.696
53.04,24.721
53.055,24.763
53.07,24.817
53.085,24.862
53.1,24.88
53.115,24.85
53.13,24.893
53.145,24.896
53.16,24.945
53.175,24.961
53.19,24.967
53.205,24.958
53.22,24.983
53.235,24.995
53.25,24.996
53.265,25.075
53.28,25.112
53.295,25.172
53.31,25.168
53.325,25.138
53.34,25.174
53.355,25.188
53.37,25.213
53.385,25.267
53.4,25.26
53.415,25.274
53.43,25.348
53.445,25.38
53.46,25.381
53.475,25.444
53.49,25.432
53.505,25.436
53.52,25.429
53.535,25.424
53.55,25.462
53.565,25.425
53.58,25.387
53.595,25.397
53.61,25.444
53.625,25.42
53.64,25.383
53.655,25.391
53.67,25.42
53.685,25.361
53.7,25.353
53.715,25.334
53.73,25.297
53.745,25.265
53.76,25.226
53.775,25.243
53.79,25.276
53.805,25.202
53.82,25.159
53.835,25.18
53.85,25.157
53.865,25.114
53.88,25.12
53.895,25.095
53.91,25.066
53.925,25.011
53.94,24.945
53.955,24.937
53.97,24.951
53.985,24.922
54,24.901
54.015,24.893
54.03,24.903
54.045,24.865
54.06,24.822
54.075,24.736
54.09,24.739
54.105,24.749
54.12,24.744
54.135,24.741
54.15,24.725
54.165,24.7
54.18,24.701
54.195,24.66
54.21,24.663
54.225,24.676
54.24,24.65
54.255,24.576
54.27,24.592
54.285,24.59
54.3,24.559
54.315,24.593
54.33,24.587
54.345,24.592
54.36,24.61
54.375,24.586
54.39,24.606
54.405,24.61
54.42,24.593
54.435,24.539
54.45,24.529
54.465,24.542
54.48,24.553
54.495,24.522
54.51,24.51
54.525,24.554
54.54,24.598
54.555,24.63
54.57,24.606
54.585,24.603
54.6,24.57
54.615,24.51
54.63,24.515
54.645,24.529
54.66,24.555
54.675,24.556
54.69,24.514
54.705,24.512
54.72,24.535
54.735,24.555
54.75,24.577
54.765,24.507
54.78,24.478
54.795,24.509
54.81,24.485
54.825,24.488
54.84,24.502
54.855,24.485
54.87,24.567
54.885,24.549
54.9,24.515
54.915,24.545
54.93,24.552
54.945,24.534
54.96,24.559
54.975,24.545
54.99,24.528
55.005,24.476
55.02,24.5
55.035,24.514
55.05,24.557
55.065,24.515
55.08,24.495
55.095,24.514
55.11,24.529
55.125,24.497
55.14,24.443
55.155,24.511
55.17,24.546
55.185,24.531
55.2,24.551
55.215,24.584
55.23,24.574
55.245,24.539
55.26,24.486
55.275,24.533
55.29,24.534
55.305,24.539
55.32,24.547
55.335,24.53
55.35,24.495
55.365,24.516
55.38,24.546
55.395,24.52
55.41,24.506
55.425,24.536
55.44,24.527
55.455,24.501
55.47,24.507
55.485,24.566
55.5,24.499
55.515,24.472
55.53,24.488
55.545,24.514
55.56,24.526
55.575,24.561
55.59,24.557
55.605,24.555
55.62,24.55
55.635,24.515
55.65,24.53
55.665,24.517
55.68,24.488
55.695,24.513
55.71,24.545
55.725,24.533
55.74,24.547
55.755,24.495
55.77,24.52
55.785,24.552
55.8,24.566
55.815,24.587
55.83,24.565
55.845,24.589
55.86,24.592
55.875,24.576
55.89,24.54
55.905,24.571
55.92,24.58
55.935,24.613
55.95,24.638
55.965,24.632
55.98,24.638
55.995,24.589
56.01,24.596
56.025,24.598
56.04,24.575
56.055,24.569
56.07,24.629
56.085,24.645
56.1,24.646
56.115,24.635
56.13,24.644
56.145,24.636
56.16,24.616
56.175,24.634
56.19,24.629
56.205,24.638
56.22,24.649
56.235,24.667
56.25,24.704
56.265,24.708
56.28,24.703
56.295,24.718
56.31,24.706
56.325,24.7
56.34,24.717
56.355,24.737
56.37,24.697
56.385,24.736
56.4,24.766
56.415,24.753
56.43,24.776
56.445,24.812
56.46,24.785
56.475,24.821
56.49,24.891
56.505,24.942
56.52,24.947
56.535,24.923
56.55,24.976
56.565,25.006
56.58,25.028
56.595,25.085
56.61,25.152
56.625,25.196
56.64,25.232
56.655,25.302
56.67,25.335
56.685,25.393
56.7,25.475
56.715,25.563
56.73,25.589
56.745,25.666
56.76,25.751
56.775,25.856
56.79,25.883
56.805,26.019
56.82,26.115
56.835,26.181
56.85,26.2
56.865,26.247
56.88,26.344
56.895,26.446
56.91,26.502
56.925,26.526
56.94,26.591
56.955,26.663
56.97,26.736
56.985,26.774
57,26.839
57.015,26.872
57.03,26.904
57.045,26.961
57.06,27.036
57.075,27.03
57.09,27.022
57.105,27.035
57.12,27.015
57.135,27.032
57.15,27.026
57.165,26.971
57.18,26.929
57.195,26.957
57.21,26.929
57.225,26.86
57.24,26.839
57.255,26.807
57.27,26.778
57.285,26.678
57.3,26.606
57.315,26.59
57.33,26.526
57.345,26.462
57.36,26.35
57.375,26.313
57.39,26.278
57.405,26.192
57.42,26.123
57.435,26.063
57.45,25.989
57.465,25.901
57.48,25.855
57.495,25.816
57.51,25.696
57.525,25.652
57.54,25.597
57.555,25.471
57.57,25.369
57.585,25.357
57.6,25.318
57.615,25.272
57.63,25.205
57.645,25.172
57.66,25.144
57.675,25.058
57.69,25.031
57.705,24.968
57.72,24.917
57.735,24.871
57.75,24.827
57.765,24.831
57.78,24.804
57.795,24.742
57.81,24.708
57.825,24.697
57.84,24.647
57.855,24.657
57.87,24.649
57.885,24.631
57.9,24.599
57.915,24.567
57.93,24.56
57.945,24.544
57.96,24.57
57.975,24.582
57.99,24.529
58.005,24.457
58.02,24.49
58.035,24.526
58.05,24.515
58.065,24.478
58.08,24.471
58.095,24.507
58.11,24.539
58.125,24.485
58.14,24.424
58.155,24.436
58.17,24.494
58.185,24.513
58.2,24.501
58.215,24.52
58.23,24.495
58.245,24.446
58.26,24.497
58.275,24.498
58.29,24.463
58.305,24.434
58.32,24.481
58.335,24.494
58.35,24.461
58.365,24.421
58.38,24.452
58.395,24.498
58.41,24.463
58.425,24.458
58.44,24.44
58.455,24.413
58.47,24.418
58.485,24.415
58.5,24.407
58.515,24.41
58.53,24.386
58.545,24.393
58.56,24.392
58.575,24.394
58.59,24.4
58.605,24.41
58.62,24.44
58.635,24.457
58.65,24.417
58.665,24.324
58.68,24.334
58.695,24.396
58.71,24.388
58.725,24.353
58.74,24.395
58.755,24.386
58.77,24.404
58.785,24.374
58.8,24.348
58.815,24.326
58.83,24.298
58.845,24.349
58.86,24.407
58.875,24.35
58.89,24.334
58.905,24.355
58.92,24.323
58.935,24.338
58.95,24.393
58.965,24.397
58.98,24.336
58.995,24.336
59.01,24.332
59.025,24.318
59.04,24.37
59.055,24.347
59.07,24.332
59.085,24.312
59.1,24.329
59.115,24.363
59.13,24.342
59.145,24.359
59.16,24.357
59.175,24.316
59.19,24.305
59.205,24.307
59.22,24.315
59.235,24.369
59.25,24.396
59.265,24.39
59.28,24.336
59.295,24.337
59.31,24.324
59.325,24.316
59.34,24.329
59.355,24.335
59.37,24.344
59.385,24.33
59.4,24.347
59.415,24.353
59.43,24.335
59.445,24.306
59.46,24.321
59.475,24.323
59.49,24.336
59.505,24.307
59.52,24.334
59.535,24.332
59.55,24.358
59.565,24.374
59.58,24.338
59.595,24.332
59.61,24.356
59.625,24.326
59.64,24.29
59.655,24.317
59.67,24.319
59.685,24.291
59.7,24.279
59.715,24.3
59.73,24.305
59.745,24.307
59.76,24.304
59.775,24.339
59.79,24.345
59.805,24.329
59.82,24.322
59.835,24.343
59.85,24.325
59.865,24.316
59.88,24.33
59.895,24.318
59.91,24.288
59.925,24.305
59.94,24.311
59.955,24.296
59.97,24.345
59.985,24.417
60,24.39
60.015,24.321
60.03,24.337
60.045,24.344
60.06,24.312
60.075,24.319
60.09,24.338
60.105,24.324
60.12,24.333
60.135,24.331
60.15,24.326
60.165,24.326
60.18,24.319
60.195,24.257
60.21,24.243
60.225,24.304
60.24,24.324
60.255,24.34
60.27,24.34
60.285,24.3
60.3,24.271
60.315,24.312
60.33,24.345
60.345,24.334
60.36,24.315
60.375,24.289
60.39,24.348
60.405,24.351
60.42,24.337
60.435,24.331
60.45,24.339
60.465,24.319
60.48,24.34
60.495,24.375
60.51,24.312
60.525,24.29
60.54,24.288
60.555,24.295
60.57,24.362
60.585,24.36
60.6,24.337
60.615,24.342
60.63,24.347
60.645,24.33
60.66,24.341
60.675,24.347
60.69,24.359
60.705,24.38
60.72,24.367
60.735,24.38
60.75,24.352
60.765,24.325
60.78,24.331
60.795,24.351
60.81,24.347
60.825,24.337
60.84,24.326
60.855,24.333
60.87,24.37
60.885,24.322
60.9,24.281
60.915,24.252
60.93,24.257
60.945,24.264
60.96,24.307
60.975,24.336
60.99,24.344
61.005,24.369
61.02,24.332
61.035,24.317
61.05,24.291
61.065,24.3
61.08,24.321
61.095,24.294
61.11,24.287
61.125,24.33
61.14,24.349
61.155,24.393
61.17,24.372
61.185,24.354
61.2,24.347
61.215,24.313
61.23,24.313
61.245,24.353
61.26,24.312
61.275,24.307
61.29,24.362
61.305,24.374
61.32,24.334
61.335,24.353
61.35,24.374
61.365,24.343
61.38,24.365
61.395,24.362
61.41,24.371
61.425,24.428
61.44,24.347
61.455,24.359
61.47,24.412
61.485,24.343
61.5,24.366
61.515,24.397
61.53,24.38
61.545,24.364
61.56,24.39
61.575,24.362
61.59,24.361
61.605,24.353
61.62,24.36
61.635,24.356
61.65,24.402
61.665,24.4
61.68,24.365
61.695,24.376
61.71,24.404
61.725,24.349
61.74,24.347
61.755,24.371
61.77,24.391
61.785,24.449
61.8,24.469
61.815,24.454
61.83,24.439
61.845,24.417
61.86,24.442
61.875,24.492
61.89,24.469
61.905,24.434
61.92,24.457
61.935,24.493
61.95,24.513
61.965,24.472
61.98,24.528
61.995,24.589
62.01,24.631
62.025,24.638
62.04,24.603
62.055,24.628
62.07,24.682
62.085,24.732
62.1,24.806
62.115,24.813
62.13,24.814
62.145,24.9
62.16,24.952
62.175,25.023
62.19,25.06
62.205,25.097
62.22,25.131
62.235,25.243
62.25,25.331
62.265,25.43
62.28,25.493
62.295,25.593
62.31,25.726
62.325,25.751
62.34,25.861
62.355,25.946
62.37,26.058
62.385,26.143
62.4,26.205
62.415,26.298
62.43,26.404
62.445,26.566
62.46,26.686
62.475,26.773
62.49,26.867
62.505,26.958
62.52,27.099
62.535,27.142
62.55,27.213
62.565,27.314
62.58,27.37
62.595,27.369
62.61,27.499
62.625,27.575
62.64,27.587
62.655,27.628
62.67,27.651
62.685,27.663
62.7,27.669
62.715,27.664
62.73,27.668
62.745,27.66
62.76,27.647
62.775,27.623
62.79,27.616
62.805,27.608
62.82,27.575
62.835,27.531
62.85,27.516
62.865,27.413
62.88,27.286
62.895,27.287
62.91,27.186
62.925,27.101
62.94,27.057
62.955,27.022
62.97,26.908
62.985,26.806
63,26.743
63.015,26.667
63.03,26.616
63.045,26.5
63.06,26.373
63.075,26.282
63.09,26.198
63.105,26.105
63.12,25.994
63.135,25.893
63.15,25.857
63.165,25.779
63.18,25.702
63.195,25.602
63.21,25.522
63.225,25.428
63.24,25.395
63.255,25.333
63.27,25.248
63.285,25.204
63.3,25.099
63.315,25.075
63.33,25.056
63.345,24.945
63.36,24.865
63.375,24.788
63.39,24.796
63.405,24.774
63.42,24.675
63.435,24.647
63.45,24.606
63.465,24.557
63.48,24.563
63.495,24.556
63.51,24.508
63.525,24.458
63.54,24.442
63.555,24.423
63.57,24.404
63.585,24.313
63.6,24.301
63.615,24.296
63.63,24.312
63.645,24.311
63.66,24.33
63.675,24.339
63.69,24.29
63.705,24.256
63.72,24.248
63.735,24.267
63.75,24.278
63.765,24.271
63.78,24.287
63.795,24.227
63.81,24.213
63.825,24.217
63.84,24.254
63.855,24.243
63.87,24.202
63.885,24.189
63.9,24.161
63.915,24.197
63.93,24.19
63.945,24.153
63.96,24.161
63.975,24.185
63.99,24.152
64.005,24.157
64.02,24.176
64.035,24.164
64.05,24.165
64.065,24.194
64.08,24.21
64.095,24.13
64.11,24.136
64.125,24.155
64.14,24.129
64.155,24.136
64.17,24.148
64.185,24.125
64.2,24.104
64.215,24.151
64.23,24.145
64.245,24.146
64.26,24.09
64.275,24.107
64.29,24.15
64.305,24.098
64.32,24.143
64.335,24.134
64.35,24.106
64.365,24.086
64.38,24.05
64.395,24.05
64.41,24.108
64.425,24.106
64.44,24.093
64.455,24.146
64.47,24.106
64.485,24.104
64.5,24.118
64.515,24.119
64.53,24.117
64.545,24.104
64.56,24.087
64.575,24.118
64.59,24.071
64.605,24.079
64.62,24.101
64.635,24.113
64.65,24.057
64.665,24.057
64.68,24.082
64.695,24.056
64.71,24.076
64.725,24.103
64.74,24.085
64.755,24.062
64.77,24.075
64.785,24.081
64.8,24.019
64.815,24.021
64.83,24.042
64.845,24.065
64.86,24.073
64.875,24.084
64.89,24.097
64.905,24.077
64.92,24.053
64.935,24.032
64.95,24.041
64.965,24.025
64.98,24.012
64.995,24.049
65.01,24.028
65.025,24.021
65.04,24.006
65.055,24.009
65.07,24.033
65.085,24.036
65.1,24.03
65.115,24.04
65.13,24.015
65.145,24.06
65.16,24.081
65.175,23.983
65.19,23.983
65.205,24.053
65.22,24.041
65.235,24.013
65.25,24.001
65.265,24.052
65.28,24.096
65.295,24.045
65.31,23.997
65.325,24.064
65.34,24.066
65.355,24.014
65.37,24.046
65.385,24.038
65.4,24.038
65.415,24.039
65.43,24.016
65.445,23.988
65.46,24
65.475,24.023
65.49,24.028
65.505,23.998
65.52,24.053
65.535,24.07
65.55,24.009
65.565,23.998
65.58,24.063
65.595,24.044
65.61,23.987
65.625,24.015
65.64,24.044
65.655,23.986
65.67,23.98
65.685,24.003
65.7,24.04
65.715,24.047
65.73,24.015
65.745,24.004
65.76,23.991
65.775,23.998
65.79,24.048
65.805,24.041
65.82,24.012
65.835,24.002
65.85,23.992
65.865,23.978
65.88,23.993
65.895,24.009
65.91,24.006
65.925,23.953
65.94,23.983
65.955,23.998
65.97,23.987
65.985,23.981
66,24.004
66.015,23.968
66.03,24.009
66.045,24.02
66.06,24.021
66.075,23.96
66.09,23.983
66.105,23.981
66.12,23.953
66.135,23.98
66.15,23.989
66.165,23.978
66.18,23.986
66.195,23.987
66.21,23.98
66.225,23.925
66.24,23.898
66.255,23.931
66.27,23.948
66.285,23.938
66.3,23.974
66.315,24.003
66.33,23.994
66.345,23.98
66.36,23.964
66.375,23.924
66.39,23.908
66.405,23.926
66.42,23.924
66.435,23.99
66.45,24
66.465,23.969
66.48,23.979
66.495,23.943
66.51,23.919
66.525,23.953
66.54,23.97
66.555,23.977
66.57,23.907
66.585,23.903
66.6,23.928
66.615,23.928
66.63,23.904
66.645,23.948
66.66,23.902
66.675,23.867
66.69,23.922
66.705,23.916
66.72,23.918
66.735,23.913
66.75,23.918
66.765,23.875
66.78,23.889
66.795,23.939
66.81,23.95
66.825,23.923
66.84,23.94
66.855,23.946
66.87,23.891
66.885,23.906
66.9,23.932
66.915,23.948
66.93,23.949
66.945,23.901
66.96,23.86
66.975,23.907
66.99,23.911
67.005,23.932
67.02,23.927
67.035,23.875
67.05,23.938
67.065,23.944
67.08,23.902
67.095,23.899
67.11,23.882
67.125,23.894
67.14,23.952
67.155,23.91
67.17,23.878
67.185,23.904
67.2,23.931
67.215,23.913
67.23,23.909
67.245,23.844
67.26,23.872
67.275,23.911
67.29,23.912
67.305,23.911
67.32,23.917
67.335,23.91
67.35,23.851
67.365,23.859
67.38,23.896
67.395,23.889
67.41,23.906
67.425,23.876
67.44,23.849
67.455,23.883
67.47,23.911
67.485,23.873
67.5,23.856
67.515,23.873
67.53,23.877
67.545,23.881
67.56,23.907
67.575,23.872
67.59,23.874
67.605,23.931
67.62,23.875
67.635,23.84
67.65,23.871
67.665,23.857
67.68,23.857
67.695,23.885
67.71,23.925
67.725,23.911
67.74,23.839
67.755,23.814
67.77,23.838
67.785,23.863
67.8,23.838
67.815,23.818
67.83,23.822
67.845,23.819
67.86,23.844
67.875,23.866
67.89,23.884
67.905,23.863
67.92,23.849
67.935,23.854
67.95,23.834
67.965,23.855
67.98,23.89
67.995,23.814
68.01,23.811
68.025,23.885
68.04,23.889
68.055,23.895
68.07,23.886
68.085,23.86
68.1,23.832
68.115,23.856
68.13,23.864
68.145,23.841
68.16,23.843
68.175,23.838
68.19,23.829
68.205,23.858
68.22,23.857
68.235,23.846
68.25,23.859
68.265,23.813
68.28,23.813
68.295,23.85
68.31,23.812
68.325,23.79
68.34,23.841
68.355,23.817
68.37,23.773
68.385,23.779
68.4,23.834
68.415,23.829
68.43,23.821
68.445,23.871
68.46,23.826
68.475,23.811
68.49,23.829
68.505,23.839
68.52,23.866
68.535,23.819
68.55,23.826
68.565,23.83
68.58,23.811
68.595,23.861
68.61,23.894
68.625,23.821
68.64,23.822
68.655,23.805
68.67,23.807
68.685,23.782
68.7,23.82
68.715,23.801
68.73,23.793
68.745,23.815
68.76,23.82
68.775,23.85
68.79,23.83
68.805,23.789
68.82,23.772
68.835,23.809
68.85,23.813
68.865,23.806
68.88,23.871
68.895,23.855
68.91,23.817
68.925,23.794
68.94,23.818
68.955,23.854
68.97,23.851
68.985,23.832
69,23.803
69.015,23.81
69.03,23.812
69.045,23.809
69.06,23.796
69.075,23.835
69.09,23.832
69.105,23.821
69.12,23.802
69.135,23.783
69.15,23.782
69.165,23.798
69.18,23.812
69.195,23.803
69.21,23.805
69.225,23.765
69.24,23.773
69.255,23.841
69.27,23.818
69.285,23.766
69.3,23.768
69.315,23.803
69.33,23.831
69.345,23.781
69.36,23.766
69.375,23.768
69.39,23.79
69.405,23.816
69.42,23.825
69.435,23.812
69.45,23.77
69.465,23.761
69.48,23.73
69.495,23.775
69.51,23.768
69.525,23.76
69.54,23.785
69.555,23.778
69.57,23.753
69.585,23.763
69.6,23.782
69.615,23.805
69.63,23.793
69.645,23.743
69.66,23.752
69.675,23.793
69.69,23.767
69.705,23.747
69.72,23.76
69.735,23.761
69.75,23.801
69.765,23.838
69.78,23.849
69.795,23.782
69.81,23.741
69.825,23.817
69.84,23.742
69.855,23.715
69.87,23.743
69.885,23.727
69.9,23.745
69.915,23.702
69.93,23.749
69.945,23.814
69.96,23.803
69.975,23.778
69.99,23.724
70.005,23.731
70.02,23.71
70.035,23.726
70.05,23.769
70.065,23.738
70.08,23.743
70.095,23.759
70.11,23.746
70.125,23.749
70.14,23.762
70.155,23.808
70.17,23.737
70.185,23.721
70.2,23.751
70.215,23.771
70.23,23.777
70.245,23.784
70.26,23.793
70.275,23.821
70.29,23.801
70.305,23.775
70.32,23.769
70.335,23.78
70.35,23.8
70.365,23.851
70.38,23.789
70.395,23.743
70.41,23.743
70.425,23.741
70.44,23.762
70.455,23.773
70.47,23.778
70.485,23.817
70.5,23.797
70.515,23.764
70.53,23.798
70.545,23.807
70.56,23.822
70.575,23.818
70.59,23.816
70.605,23.798
70.62,23.811
70.635,23.799
70.65,23.776
70.665,23.841
70.68,23.847
70.695,23.895
70.71,23.889
70.725,23.824
70.74,23.785
70.755,23.811
70.77,23.867
70.785,23.925
70.8,23.884
70.815,23.886
70.83,23.869
70.845,23.847
70.86,23.936
70.875,23.957
70.89,23.91
70.905,23.915
70.92,23.961
70.935,23.933
70.95,23.957
70.965,23.954
70.98,23.946
70.995,23.959
71.01,24.003
71.025,24.024
71.04,23.997
71.055,24.021
71.07,23.975
71.085,23.947
71.1,23.949
71.115,23.974
71.13,23.952
71.145,23.945
71.16,23.982
71.175,23.954
71.19,23.952
71.205,23.953
71.22,23.958
71.235,23.978
71.25,23.955
71.265,23.987
71.28,23.971
71.295,23.905
71.31,23.937
71.325,23.958
71.34,23.949
71.355,23.953
71.37,23.936
71.385,23.908
71.4,23.956
71.415,23.933
71.43,23.935
71.445,23.907
71.46,23.854
71.475,23.834
71.49,23.855
71.505,23.859
71.52,23.821
71.535,23.863
71.55,23.874
71.565,23.836
71.58,23.837
71.595,23.812
71.61,23.782
71.625,23.789
71.64,23.828
71.655,23.802
71.67,23.783
71.685,23.757
71.7,23.754
71.715,23.827
71.73,23.805
71.745,23.811
71.76,23.829
71.775,23.822
71.79,23.781
71.805,23.745
71.82,23.758
71.835,23.77
71.85,23.736
71.865,23.723
71.88,23.743
71.895,23.73
71.91,23.719
71.925,23.739
71.94,23.698
71.955,23.704
71.97,23.685
71.985,23.694
72,23.715
72.015,23.694
72.03,23.696
72.045,23.73
72.06,23.768
72.075,23.749
72.09,23.68
72.105,23.646
72.12,23.731
72.135,23.725
72.15,23.699
72.165,23.713
72.18,23.698
72.195,23.666
72.21,23.667
72.225,23.727
72.24,23.706
72.255,23.694
72.27,23.679
72.285,23.713
72.3,23.697
72.315,23.629
72.33,23.634
72.345,23.678
72.36,23.668
72.375,23.682
72.39,23.668
72.405,23.691
72.42,23.657
72.435,23.632
72.45,23.652
72.465,23.648
72.48,23.669
72.495,23.653
72.51,23.643
72.525,23.648
72.54,23.697
72.555,23.687
72.57,23.65
72.585,23.659
72.6,23.707
72.615,23.684
72.63,23.668
72.645,23.657
72.66,23.645
72.675,23.675
72.69,23.742
72.705,23.689
72.72,23.675
72.735,23.644
72.75,23.617
72.765,23.619
72.78,23.642
72.795,23.644
72.81,23.669
72.825,23.671
72.84,23.682
72.855,23.69
72.87,23.658
72.885,23.642
72.9,23.63
72.915,23.633
72.93,23.652
72.945,23.681
72.96,23.677
72.975,23.675
72.99,23.643
73.005,23.636
73.02,23.64
73.035,23.654
73.05,23.652
73.065,23.625
73.08,23.626
73.095,23.657
73.11,23.659
73.125,23.636
73.14,23.649
73.155,23.662
73.17,23.682
73.185,23.667
73.2,23.66
73.215,23.715
73.23,23.636
73.245,23.649
73.26,23.635
73.275,23.611
73.29,23.686
73.305,23.647
73.32,23.604
73.335,23.656
73.35,23.661
73.365,23.67
73.38,23.711
73.395,23.652
73.41,23.623
73.425,23.652
73.44,23.659
73.455,23.668
73.47,23.644
73.485,23.664
73.5,23.704
73.515,23.708
73.53,23.729
73.545,23.718
73.56,23.687
73.575,23.718
73.59,23.733
73.605,23.773
73.62,23.756
73.635,23.736
73.65,23.805
73.665,23.793
73.68,23.795
73.695,23.823
73.71,23.81
73.725,23.825
73.74,23.825
73.755,23.819
73.77,23.86
73.785,23.855
73.8,23.878
73.815,23.909
73.83,23.928
73.845,23.926
73.86,23.95
73.875,23.944
73.89,23.995
73.905,24.036
73.92,24.045
73.935,24.064
73.95,24.044
73.965,24.026
73.98,24.022
73.995,24.061
74.01,24.062
74.025,24.075
74.04,24.098
74.055,24.11
74.07,24.099
74.085,24.102
74.1,24.145
74.115,24.187
74.13,24.196
74.145,24.168
74.16,24.189
74.175,24.163
74.19,24.151
74.205,24.151
74.22,24.154
74.235,24.22
74.25,24.224
74.265,24.179
74.28,24.196
74.295,24.235
74.31,24.184
74.325,24.151
74.34,24.155
74.355,24.187
74.37,24.151
74.385,24.106
74.4,24.136
74.415,24.095
74.43,24.103
74.445,24.1
74.46,24.082
74.475,24.079
74.49,24.023
74.505,24.041
74.52,24.028
74.535,23.997
74.55,24.053
74.565,24.043
74.58,23.968
74.595,23.949
74.61,23.938
74.625,23.95
74.64,23.979
74.655,23.975
74.67,23.917
74.685,23.92
74.7,23.913
74.715,23.87
74.73,23.888
74.745,23.92
74.76,23.891
74.775,23.863
74.79,23.851
74.805,23.873
74.82,23.89
74.835,23.892
74.85,23.831
74.865,23.845
74.88,23.886
74.895,23.854
74.91,23.809
74.925,23.788
74.94,23.812
74.955,23.848
74.97,23.801
74.985,23.793
75,23.688
75.015,23.586
75.03,23.484
75.045,23.356
75.06,23.319
75.075,23.264
75.09,23.183
75.105,23.008
75.12,22.942
75.135,22.976
75.15,22.998
75.165,22.977
75.18,22.898
75.195,22.834
75.21,22.776
75.225,22.787
75.24,22.622
75.255,22.602
75.27,22.641
75.285,22.616
75.3,22.555
75.315,22.423
75.33,22.274
75.345,20.489
