24.99,27.202
25.005,27.154
25.02,27.87
25.035,27.628
25.05,27.191
25.065,27.307
25.08,27.591
25.095,27.864
25.11,27.825
25.125,27.22
25.14,27.237
25.155,27.444
25.17,27.36
25.185,27.378
25.2,27.714
25.215,27.786
25.23,27.407
25.245,27.451
25.26,27.354
25.275,27.273
25.29,27.206
25.305,27.38
25.32,27.414
25.335,27.02
25.35,26.972
25.365,27.333
25.38,27.307
25.395,27.483
25.41,27.699
25.425,27.288
25.44,27.077
25.455,27.331
25.47,27.442
25.485,27.28
25.5,27.53
25.515,27.669
25.53,27.36
25.545,27.128
25.56,27.129
25.575,27.24
25.59,27.242
25.605,27.363
25.62,27.655
25.635,27.754
25.65,27.628
25.665,27.451
25.68,27.612
25.695,27.502
25.71,27.254
25.725,27.276
25.74,27.445
25.755,27.555
25.77,27.647
25.785,27.451
25.8,27.257
25.815,27.322
25.83,27.501
25.845,27.577
25.86,27.532
25.875,27.363
25.89,27.165
25.905,27.165
25.92,27.256
25.935,27.255
25.95,27.367
25.965,27.272
25.98,27.125
25.995,27.025
26.01,27.103
26.025,27.19
26.04,27.243
26.055,27.328
26.07,27.48
26.085,27.304
26.1,27.267
26.115,27.438
26.13,27.289
26.145,27.101
26.16,27.061
26.175,27.173
26.19,27.223
26.205,27.087
26.22,27.22
26.235,27.311
26.25,27.192
26.265,27.166
26.28,27.244
26.295,27.145
26.31,27.139
26.325,27.112
26.34,27.195
26.355,27.209
26.37,27.34
26.385,27.302
26.4,27.222
26.415,27.095
26.43,27.132
26.445,27.14
26.46,27.165
26.475,27.264
26.49,27.12
26.505,27.176
26.52,27.208
26.535,27.223
26.55,27.076
26.565,27.117
26.58,27.028
26.595,26.889
26.61,26.921
26.625,26.989
26.64,26.971
26.655,26.824
26.67,26.787
26.685,26.88
26.7,27.102
26.715,27.117
26.73,27.229
26.745,27.204
26.76,27.002
26.775,26.849
26.79,26.745
26.805,26.83
26.82,26.952
26.835,26.957
26.85,27.063
26.865,26.956
26.88,26.927
26.895,26.894
26.91,26.932
26.925,26.75
26.94,26.782
26.955,26.821
26.97,26.857
26.985,26.857
27,26.811
27.015,26.8
27.03,26.744
27.045,26.841
27.06,26.906
27.075,26.924
27.09,26.901
27.105,26.977
27.12,26.783
27.135,26.794
27.15,26.852
27.165,26.805
27.18,26.708
27.195,26.701
27.21,26.689
27.225,26.743
27.24,26.773
27.255,26.818
27.27,26.893
27.285,26.831
27.3,26.58
27.315,26.686
27.33,26.808
27.345,26.759
27.36,26.58
27.375,26.533
27.39,26.518
27.405,26.633
27.42,26.79
27.435,26.8
27.45,26.718
27.465,26.578
27.48,26.582
27.495,26.741
27.51,26.734
27.525,26.726
27.54,26.646
27.555,26.663
27.57,26.656
27.585,26.626
27.6,26.709
27.615,26.524
27.63,26.489
27.645,26.475
27.66,26.74
27.675,26.55
27.69,26.383
27.705,26.519
27.72,26.676
27.735,26.633
27.75,26.72
27.765,26.592
27.78,26.44
27.795,26.621
27.81,26.68
27.825,26.545
27.84,26.591
27.855,26.691
27.87,26.661
27.885,26.561
27.9,26.454
27.915,26.593
27.93,26.574
27.945,26.431
27.96,26.607
27.975,26.634
27.99,26.588
28.005,26.615
28.02,26.775
28.035,26.671
28.05,26.536
28.065,26.504
28.08,26.581
28.095,26.617
28.11,26.545
28.125,26.49
28.14,26.504
28.155,26.584
28.17,26.678
28.185,26.623
28.2,26.565
28.215,26.584
28.23,26.543
28.245,26.552
28.26,26.654
28.275,26.75
28.29,26.687
28.305,26.648
28.32,26.567
28.335,26.479
28.35,26.577
28.365,26.781
28.38,26.681
28.395,26.507
28.41,26.516
28.425,26.624
28.44,26.681
28.455,26.831
28.47,26.719
28.485,26.672
28.5,26.719
28.515,26.675
28.53,26.586
28.545,26.62
28.56,26.712
28.575,26.628
28.59,26.474
28.605,26.525
28.62,26.59
28.635,26.522
28.65,26.56
28.665,26.634
28.68,26.633
28.695,26.507
28.71,26.635
28.725,26.778
28.74,26.755
28.755,26.648
28.77,26.572
28.785,26.534
28.8,26.51
28.815,26.554
28.83,26.623
28.845,26.647
28.86,26.567
28.875,26.646
28.89,26.738
28.905,26.644
28.92,26.596
28.935,26.598
28.95,26.614
28.965,26.804
28.98,26.861
28.995,26.859
29.01,26.705
29.025,26.704
29.04,26.725
29.055,26.809
29.07,26.84
29.085,26.849
29.1,26.743
29.115,26.731
29.13,26.831
29.145,26.746
29.16,26.664
29.175,26.767
29.19,26.73
29.205,26.842
29.22,26.843
29.235,26.709
29.25,26.781
29.265,26.703
29.28,26.808
29.295,26.76
29.31,26.685
29.325,26.817
29.34,26.765
29.355,26.732
29.37,26.633
29.385,26.587
29.4,26.688
29.415,26.76
29.43,26.653
29.445,26.679
29.46,26.832
29.475,26.908
29.49,26.956
29.505,26.897
29.52,26.981
29.535,27.157
29.55,27.114
29.565,27.05
29.58,27.031
29.595,26.945
29.61,27.088
29.625,27.25
29.64,27.217
29.655,27.396
29.67,27.59
29.685,27.55
29.7,27.504
29.715,27.47
29.73,27.486
29.745,27.714
29.76,27.596
29.775,27.663
29.79,27.8
29.805,28.034
29.82,28.157
29.835,28.326
29.85,28.462
29.865,28.61
29.88,28.608
29.895,28.584
29.91,28.716
29.925,28.699
29.94,28.835
29.955,29.204
29.97,29.362
29.985,29.263
30,29.232
30.015,29.31
30.03,29.287
30.045,29.265
30.06,29.325
30.075,29.556
30.09,29.67
30.105,29.549
30.12,29.704
30.135,29.716
30.15,29.758
30.165,29.804
30.18,29.727
30.195,29.66
30.21,29.635
30.225,29.635
30.24,29.581
30.255,29.341
30.27,29.327
30.285,29.357
30.3,29.172
30.315,29.133
30.33,29.082
30.345,29.085
30.36,28.892
30.375,28.86
30.39,28.794
30.405,28.729
30.42,28.625
30.435,28.462
30.45,28.413
30.465,28.499
30.48,28.129
30.495,28.122
30.51,28.215
30.525,27.995
30.54,27.971
30.555,27.859
30.57,27.71
30.585,27.6
30.6,27.567
30.615,27.585
30.63,27.33
30.645,27.108
30.66,27.275
30.675,27.398
30.69,27.328
30.705,27.145
30.72,27.188
30.735,27.223
30.75,26.928
30.765,26.829
30.78,27.004
30.795,27.087
30.81,26.867
30.825,26.752
30.84,26.79
30.855,26.871
30.87,26.994
30.885,26.931
30.9,26.772
30.915,26.805
30.93,26.87
30.945,26.815
30.96,26.85
30.975,26.859
30.99,26.787
31.005,26.843
31.02,26.728
31.035,26.856
31.05,26.964
31.065,26.868
31.08,26.853
31.095,26.729
31.11,26.657
31.125,26.773
31.14,26.753
31.155,26.756
31.17,26.854
31.185,26.901
31.2,26.778
31.215,26.713
31.23,26.896
31.245,26.744
31.26,26.801
31.275,26.828
31.29,26.806
31.305,26.641
31.32,26.544
31.335,26.528
31.35,26.559
31.365,26.741
31.38,26.821
31.395,26.726
31.41,26.696
31.425,26.739
31.44,26.692
31.455,26.712
31.47,26.705
31.485,26.767
31.5,26.731
31.515,26.689
31.53,26.614
31.545,26.518
31.56,26.727
31.575,26.806
31.59,26.668
31.605,26.735
31.62,26.681
31.635,26.548
31.65,26.546
31.665,26.597
31.68,26.632
31.695,26.731
31.71,26.826
31.725,26.835
31.74,26.704
31.755,26.659
31.77,26.742
31.785,26.755
31.8,26.627
31.815,26.611
31.83,26.74
31.845,26.806
31.86,26.773
31.875,26.848
31.89,26.853
31.905,26.62
31.92,26.749
31.935,26.794
31.95,26.901
31.965,26.872
31.98,26.723
31.995,26.67
32.01,26.671
32.025,26.667
32.04,26.712
32.055,26.663
32.07,26.82
32.085,26.87
32.1,26.692
32.115,26.526
32.13,26.679
32.145,26.793
32.16,26.558
32.175,26.672
32.19,26.711
32.205,26.675
32.22,26.751
32.235,26.695
32.25,26.595
32.265,26.727
32.28,26.757
32.295,26.727
32.31,26.657
32.325,26.722
32.34,26.669
32.355,26.599
32.37,26.57
32.385,26.652
32.4,26.748
32.415,26.721
32.43,26.65
32.445,26.605
32.46,26.754
32.475,26.912
32.49,26.933
32.505,26.822
32.52,26.666
32.535,26.735
32.55,26.739
32.565,26.651
32.58,26.736
32.595,26.743
32.61,26.751
32.625,26.809
32.64,26.768
32.655,26.768
32.67,26.752
32.685,26.63
32.7,26.577
32.715,26.688
32.73,26.683
32.745,26.763
32.76,26.841
32.775,26.672
32.79,26.753
32.805,26.919
32.82,26.917
32.835,26.702
32.85,26.667
32.865,26.65
32.88,26.684
32.895,26.733
32.91,26.631
32.925,26.721
32.94,26.777
32.955,26.662
32.97,26.52
32.985,26.571
33,26.558
33.015,26.6
33.03,26.602
33.045,26.753
33.06,26.791
33.075,26.756
33.09,26.744
33.105,26.69
33.12,26.556
33.135,26.557
33.15,26.792
33.165,26.738
33.18,26.614
33.195,26.787
33.21,26.721
33.225,26.706
33.24,26.614
33.255,26.615
33.27,26.696
33.285,26.666
33.3,26.836
33.315,26.784
33.33,26.755
33.345,26.661
33.36,26.697
33.375,26.734
33.39,26.686
33.405,26.773
33.42,26.729
33.435,26.804
33.45,26.755
33.465,26.737
33.48,26.776
33.495,26.876
33.51,26.889
33.525,26.658
33.54,26.681
33.555,26.898
33.57,26.768
33.585,26.639
33.6,26.671
33.615,26.857
33.63,26.76
33.645,26.657
33.66,26.833
33.675,26.879
33.69,26.888
33.705,26.911
33.72,26.897
33.735,26.836
33.75,26.832
33.765,26.758
33.78,26.736
33.795,26.888
33.81,26.766
33.825,26.654
33.84,26.916
33.855,26.894
33.87,26.827
33.885,26.78
33.9,26.801
33.915,26.755
33.93,26.779
33.945,26.705
33.96,26.754
33.975,26.91
33.99,26.912
34.005,26.885
34.02,26.777
34.035,26.8
34.05,26.865
34.065,26.943
34.08,26.852
34.095,26.889
34.11,26.804
34.125,26.868
34.14,26.954
34.155,26.903
34.17,26.951
34.185,26.897
34.2,26.831
34.215,26.849
34.23,26.883
34.245,26.937
34.26,27.037
34.275,27.067
34.29,27.041
34.305,27.025
34.32,27.071
34.335,27.05
34.35,27.103
34.365,26.966
34.38,27.032
34.395,27.137
34.41,27.199
34.425,27.144
34.44,27.173
34.455,27.24
34.47,27.32
34.485,27.17
34.5,27.112
34.515,27.154
34.53,27.328
34.545,27.24
34.56,27.192
34.575,27.199
34.59,27.153
34.605,27.219
34.62,27.241
34.635,27.106
34.65,27.207
34.665,27.359
34.68,27.267
34.695,27.299
34.71,27.309
34.725,27.247
34.74,27.406
34.755,27.377
34.77,27.525
34.785,27.639
34.8,27.56
34.815,27.498
34.83,27.522
34.845,27.574
34.86,27.592
34.875,27.771
34.89,27.948
34.905,28.029
34.92,28.043
34.935,27.961
34.95,28.115
34.965,28.195
34.98,28.371
34.995,28.383
35.01,28.571
35.025,28.791
35.04,28.95
35.055,29.295
35.07,29.488
35.085,29.772
35.1,29.982
35.115,30.034
35.13,30.288
35.145,30.697
35.16,31.037
35.175,31.504
35.19,31.732
35.205,31.954
35.22,32.219
35.235,32.354
35.25,32.707
35.265,33.032
35.28,33.199
35.295,33.524
35.31,33.891
35.325,34.198
35.34,34.43
35.355,34.66
35.37,35.046
35.385,35.398
35.4,35.574
35.415,35.721
35.43,35.848
35.445,35.876
35.46,36.083
35.475,36.258
35.49,36.177
35.505,36.048
35.52,36.075
35.535,36.109
35.55,36.063
35.565,35.876
35.58,35.772
35.595,35.64
35.61,35.512
35.625,35.371
35.64,35.09
35.655,34.865
35.67,34.551
35.685,34.177
35.7,34.106
35.715,33.92
35.73,33.521
35.745,33.237
35.76,32.988
35.775,32.882
35.79,32.702
35.805,32.209
35.82,31.911
35.835,31.632
35.85,31.461
35.865,31.057
35.88,30.911
35.895,30.43
35.91,30.337
35.925,30.345
35.94,30.119
35.955,29.721
35.97,29.529
35.985,29.395
36,29.219
36.015,28.886
36.03,28.665
36.045,28.474
36.06,28.385
36.075,28.238
36.09,28.242
36.105,28.085
36.12,27.972
36.135,27.928
36.15,27.785
36.165,27.635
36.18,27.572
36.195,27.419
36.21,27.471
36.225,27.408
36.24,27.358
36.255,27.358
36.27,27.209
36.285,27.137
36.3,27.123
36.315,27.145
36.33,27.127
36.345,27.038
36.36,27.105
36.375,27.133
36.39,27.173
36.405,27.072
36.42,26.997
36.435,27.006
36.45,27.125
36.465,27.098
36.48,26.995
36.495,26.857
36.51,26.907
36.525,27.024
36.54,27.04
36.555,26.937
36.57,27.068
36.585,26.981
36.6,27.053
36.615,27.09
36.63,26.865
36.645,26.845
36.66,26.987
36.675,26.999
36.69,27.132
36.705,27.089
36.72,27.03
36.735,26.846
36.75,26.882
36.765,26.858
36.78,26.844
36.795,27.021
36.81,26.868
36.825,26.798
36.84,26.88
36.855,26.932
36.87,26.856
36.885,26.988
36.9,27.118
36.915,27.109
36.93,27.214
36.945,27.175
36.96,26.972
36.975,26.988
36.99,27.185
37.005,27.224
37.02,27.25
37.035,27.13
37.05,27.086
37.065,27.04
37.08,26.948
37.095,27.084
37.11,27.08
37.125,26.938
37.14,26.814
37.155,26.94
37.17,27.169
37.185,27.057
37.2,26.888
37.215,26.898
37.23,27.035
37.245,27.04
37.26,27.032
37.275,27.034
37.29,27.05
37.305,26.964
37.32,26.892
37.335,26.823
37.35,26.734
37.365,26.765
37.38,26.749
37.395,26.764
37.41,26.802
37.425,26.741
37.44,26.704
37.455,26.779
37.47,26.804
37.485,26.689
37.5,26.681
37.515,26.624
37.53,26.729
37.545,26.773
37.56,26.705
37.575,26.704
37.59,26.656
37.605,26.639
37.62,26.512
37.635,26.482
37.65,26.395
37.665,26.295
37.68,26.438
37.695,26.48
37.71,26.388
37.725,26.593
37.74,26.763
37.755,26.67
37.77,26.611
37.785,26.485
37.8,26.5
37.815,26.627
37.83,26.628
37.845,26.583
37.86,26.412
37.875,26.335
37.89,26.442
37.905,26.386
37.92,26.392
37.935,26.274
37.95,26.336
37.965,26.5
37.98,26.416
37.995,26.493
38.01,26.339
38.025,26.279
38.04,26.471
38.055,26.61
38.07,26.475
38.085,26.328
38.1,26.296
38.115,26.419
38.13,26.45
38.145,26.517
38.16,26.502
38.175,26.503
38.19,26.422
38.205,26.489
38.22,26.408
38.235,26.445
38.25,26.397
38.265,26.419
38.28,26.506
38.295,26.483
38.31,26.44
38.325,26.495
38.34,26.517
38.355,26.591
38.37,26.367
38.385,26.406
38.4,26.424
38.415,26.475
38.43,26.342
38.445,26.343
38.46,26.421
38.475,26.446
38.49,26.529
38.505,26.475
38.52,26.409
38.535,26.324
38.55,26.541
38.565,26.544
38.58,26.448
38.595,26.31
38.61,26.336
38.625,26.357
38.64,26.359
38.655,26.409
38.67,26.392
38.685,26.378
38.7,26.348
38.715,26.354
38.73,26.445
38.745,26.544
38.76,26.471
38.775,26.392
38.79,26.345
38.805,26.343
38.82,26.41
38.835,26.308
38.85,26.258
38.865,26.386
38.88,26.406
38.895,26.328
38.91,26.272
38.925,26.273
38.94,26.54
38.955,26.573
38.97,26.518
38.985,26.399
39,26.27
39.015,26.222
39.03,26.231
39.045,26.43
39.06,26.44
39.075,26.46
39.09,26.559
39.105,26.392
39.12,26.301
39.135,26.284
39.15,26.296
39.165,26.261
39.18,26.121
39.195,26.259
39.21,26.419
39.225,26.344
39.24,26.442
39.255,26.319
39.27,26.184
39.285,26.47
39.3,26.576
39.315,26.413
39.33,26.436
39.345,26.253
39.36,26.189
39.375,26.375
39.39,26.362
39.405,26.452
39.42,26.443
39.435,26.303
39.45,26.404
39.465,26.431
39.48,26.389
39.495,26.316
39.51,26.132
39.525,26.279
39.54,26.367
39.555,26.41
39.57,26.388
39.585,26.295
39.6,26.192
39.615,26.279
39.63,26.497
39.645,26.546
39.66,26.503
39.675,26.377
39.69,26.383
39.705,26.18
39.72,26.263
39.735,26.312
39.75,26.369
39.765,26.457
39.78,26.446
39.795,26.302
39.81,26.292
39.825,26.45
39.84,26.44
39.855,26.276
39.87,26.362
39.885,26.5
39.9,26.358
39.915,26.266
39.93,26.308
39.945,26.393
39.96,26.313
39.975,26.25
39.99,26.161
40.005,26.09
40.02,26.216
40.035,26.326
40.05,26.299
40.065,26.309
40.08,26.297
40.095,26.356
40.11,26.334
40.125,26.355
40.14,26.372
40.155,26.49
40.17,26.491
40.185,26.413
40.2,26.136
40.215,26.121
40.23,26.395
40.245,26.615
40.26,26.564
40.275,26.427
40.29,26.346
40.305,26.212
40.32,26.419
40.335,26.545
40.35,26.537
40.365,26.44
40.38,26.349
40.395,26.22
40.41,26.233
40.425,26.296
40.44,26.426
40.455,26.33
40.47,26.178
40.485,26.207
40.5,26.134
40.515,26.182
40.53,26.334
40.545,26.299
40.56,26.298
40.575,26.365
40.59,26.283
40.605,26.255
40.62,26.33
40.635,26.367
40.65,26.451
40.665,26.413
40.68,26.279
40.695,26.205
40.71,26.186
40.725,26.103
40.74,26.169
40.755,26.152
40.77,26.177
40.785,26.184
40.8,26.108
40.815,26.115
40.83,26.189
40.845,26.223
40.86,26.233
40.875,26.229
40.89,26.227
40.905,26.215
40.92,26.444
40.935,26.366
40.95,26.267
40.965,26.313
40.98,26.333
40.995,26.261
41.01,26.203
41.025,26.081
41.04,26.053
41.055,26.161
41.07,26.228
41.085,26.226
41.1,26.263
41.115,26.337
41.13,26.368
41.145,26.325
41.16,26.118
41.175,26.218
41.19,26.175
41.205,26.275
41.22,26.283
41.235,26.325
41.25,26.393
41.265,26.311
41.28,26.405
41.295,26.437
41.31,26.203
41.325,26.196
41.34,26.374
41.355,26.355
41.37,26.175
41.385,26.226
41.4,26.337
41.415,26.237
41.43,26.101
41.445,26.128
41.46,26.436
41.475,26.355
41.49,26.443
41.505,26.33
41.52,26.21
41.535,26.11
41.55,26.387
41.565,26.579
41.58,26.507
41.595,26.273
41.61,26.213
41.625,26.309
41.64,26.321
41.655,26.252
41.67,26.195
41.685,26.256
41.7,26.183
41.715,26.247
41.73,26.318
41.745,26.195
41.76,26.133
41.775,26.103
41.79,26.195
41.805,26.356
41.82,26.491
41.835,26.476
41.85,26.435
41.865,26.378
41.88,26.429
41.895,26.395
41.91,26.335
41.925,26.325
41.94,26.232
41.955,26.14
41.97,26.182
41.985,26.34
42,26.345
42.015,26.282
42.03,26.376
42.045,26.291
42.06,26.328
42.075,26.328
42.09,26.398
42.105,26.54
42.12,26.489
42.135,26.435
42.15,26.422
42.165,26.448
42.18,26.388
42.195,26.261
42.21,26.317
42.225,26.414
42.24,26.334
42.255,26.312
42.27,26.399
42.285,26.343
42.3,26.379
42.315,26.393
42.33,26.482
42.345,26.386
42.36,26.286
42.375,26.377
42.39,26.479
42.405,26.416
42.42,26.378
42.435,26.395
42.45,26.524
42.465,26.495
42.48,26.339
42.495,26.368
42.51,26.436
42.525,26.513
42.54,26.38
42.555,26.455
42.57,26.525
42.585,26.518
42.6,26.508
42.615,26.394
42.63,26.444
42.645,26.643
42.66,26.476
42.675,26.352
42.69,26.675
42.705,26.842
42.72,26.843
42.735,26.779
42.75,26.97
42.765,26.878
42.78,26.921
42.795,26.99
42.81,27.169
42.825,27.11
42.84,27.063
42.855,27.168
42.87,27.225
42.885,27.36
42.9,27.33
42.915,27.246
42.93,27.394
42.945,27.607
42.96,27.539
42.975,27.615
42.99,27.769
43.005,27.794
43.02,27.813
43.035,27.936
43.05,28.045
43.065,28.077
43.08,27.876
43.095,28.031
43.11,28.115
43.125,28.056
43.14,28.186
43.155,28.206
43.17,28.151
43.185,28.019
43.2,27.997
43.215,27.94
43.23,27.997
43.245,28.08
43.26,28.033
43.275,27.82
43.29,27.84
43.305,27.909
43.32,27.79
43.335,27.634
43.35,27.719
43.365,27.745
43.38,27.493
43.395,27.615
43.41,27.641
43.425,27.484
43.44,27.422
43.455,27.336
43.47,27.301
43.485,27.165
43.5,27.135
43.515,27.108
43.53,27.144
43.545,27.074
43.56,26.866
43.575,26.797
43.59,26.662
43.605,26.692
43.62,26.753
43.635,26.809
43.65,26.712
43.665,26.452
43.68,26.52
43.695,26.678
43.71,26.516
43.725,26.5
43.74,26.526
43.755,26.405
43.77,26.301
43.785,26.24
43.8,26.233
43.815,26.138
43.83,26.247
43.845,26.427
43.86,26.421
43.875,26.472
43.89,26.431
43.905,26.249
43.92,26.225
43.935,26.34
43.95,26.192
43.965,26.111
43.98,26.132
43.995,26.165
44.01,26.16
44.025,26.18
44.04,26.2
44.055,26.161
44.07,26.193
44.085,26.17
44.1,26.129
44.115,26.133
44.13,26.213
44.145,26.177
44.16,26.198
44.175,26.197
44.19,26.083
44.205,26.012
44.22,26.137
44.235,26.226
44.25,26.126
44.265,26.026
44.28,26.11
44.295,26.292
44.31,26.371
44.325,26.266
44.34,26.191
44.355,26.128
44.37,26.241
44.385,26.194
44.4,26.184
44.415,26.195
44.43,26.237
44.445,26.166
44.46,26.214
44.475,26.299
44.49,26.269
44.505,26.126
44.52,26.067
44.535,25.901
44.55,26.045
44.565,26.16
44.58,26.067
44.595,26.041
44.61,26.137
44.625,26.165
44.64,26.149
44.655,26.155
44.67,26.183
44.685,26.188
44.7,26.077
44.715,26.153
44.73,26.231
44.745,26.262
44.76,26.293
44.775,26.138
44.79,26.142
44.805,26.214
44.82,26.139
44.835,26.072
44.85,25.911
44.865,25.967
44.88,25.929
44.895,26.013
44.91,26.167
44.925,26.301
44.94,26.255
44.955,26.204
44.97,26.171
44.985,26.233
45,26.291
45.015,26.169
45.03,26.05
45.045,25.959
45.06,25.954
45.075,26.092
45.09,26.077
45.105,25.988
45.12,25.98
45.135,25.948
45.15,26
45.165,26.088
45.18,25.993
45.195,26.062
45.21,26.23
45.225,26.089
45.24,26
45.255,26.001
45.27,26.029
45.285,26.056
45.3,26.11
45.315,26.133
45.33,26.022
45.345,26.232
45.36,26.196
45.375,26.116
45.39,26.04
45.405,26.1
45.42,26.015
45.435,25.949
45.45,26.041
45.465,26.074
45.48,26.146
45.495,26.167
45.51,26.029
45.525,26.132
45.54,26.117
45.555,26.12
45.57,26.082
45.585,25.991
45.6,26
45.615,25.958
45.63,25.91
45.645,25.928
45.66,25.97
45.675,26.087
45.69,26.138
45.705,25.991
45.72,25.869
45.735,25.889
45.75,26.026
45.765,26.118
45.78,26.094
45.795,26.038
45.81,26.005
45.825,25.958
45.84,25.856
45.855,26.018
45.87,26.198
45.885,26.107
45.9,25.95
45.915,26.02
45.93,26.028
45.945,25.904
45.96,26.022
45.975,26.057
45.99,26.093
46.005,26.076
46.02,26.045
46.035,26.054
46.05,26.084
46.065,26.129
46.08,26.024
46.095,25.962
46.11,26.011
46.125,25.919
46.14,25.787
46.155,25.898
46.17,25.909
46.185,25.947
46.2,26.138
46.215,25.999
46.23,25.873
46.245,25.884
46.26,26
46.275,26.04
46.29,26.056
46.305,25.984
46.32,25.966
46.335,26.003
46.35,25.9
46.365,25.812
46.38,25.896
46.395,25.875
46.41,25.981
46.425,26.096
46.44,26.151
46.455,26.081
46.47,26.008
46.485,25.907
46.5,26.012
46.515,26.026
46.53,26.032
46.545,26.017
46.56,26.071
46.575,26.006
46.59,25.958
46.605,26.019
46.62,26.034
46.635,25.928
46.65,26.038
46.665,26.108
46.68,25.803
46.695,25.76
46.71,25.853
46.725,25.812
46.74,25.966
46.755,25.992
46.77,26.09
46.785,25.987
46.8,25.781
46.815,25.899
46.83,26.016
46.845,25.947
46.86,25.98
46.875,25.972
46.89,26.06
46.905,26.161
46.92,25.998
46.935,25.991
46.95,25.942
46.965,25.994
46.98,25.79
46.995,25.831
47.01,25.971
47.025,25.881
47.04,25.971
47.055,25.993
47.07,25.954
47.085,26.139
47.1,25.974
47.115,25.779
47.13,25.695
47.145,25.956
47.16,26.138
47.175,25.986
47.19,25.928
47.205,25.767
47.22,25.837
47.235,25.944
47.25,25.896
47.265,25.923
47.28,25.934
47.295,26.066
47.31,26.025
47.325,25.906
47.34,25.917
47.355,25.861
47.37,25.871
47.385,26.032
47.4,25.955
47.415,25.838
47.43,25.827
47.445,25.935
47.46,25.93
47.475,25.845
47.49,25.747
47.505,25.882
47.52,26.013
47.535,25.882
47.55,25.923
47.565,26.074
47.58,25.843
47.595,25.788
47.61,25.873
47.625,25.904
47.64,26.053
47.655,25.884
47.67,25.971
47.685,25.978
47.7,25.817
47.715,25.796
47.73,25.894
47.745,26.076
47.76,26.018
47.775,25.883
47.79,25.827
47.805,25.832
47.82,25.959
47.835,26.013
47.85,25.97
47.865,26.039
47.88,26.103
47.895,25.884
47.91,25.831
47.925,25.853
47.94,25.879
47.955,25.922
47.97,25.878
47.985,25.954
48,26.047
48.015,26.045
48.03,25.936
48.045,25.91
48.06,26.113
48.075,25.98
48.09,26.089
48.105,26.199
48.12,25.988
48.135,25.84
48.15,25.928
48.165,26.085
48.18,26.095
48.195,25.958
48.21,25.799
48.225,25.875
48.24,25.895
48.255,25.852
48.27,25.809
48.285,25.953
48.3,25.923
48.315,25.853
48.33,25.871
48.345,25.829
48.36,25.817
48.375,25.871
48.39,25.828
48.405,25.933
48.42,26.001
48.435,25.92
48.45,25.911
48.465,25.819
48.48,25.746
48.495,25.962
48.51,26.045
48.525,26.032
48.54,26.038
48.555,25.976
48.57,25.834
48.585,25.751
48.6,25.752
48.615,25.768
48.63,25.799
48.645,25.966
48.66,25.808
48.675,25.954
48.69,25.966
48.705,25.872
48.72,25.894
48.735,25.911
48.75,25.864
48.765,25.778
48.78,25.921
48.795,25.937
48.81,25.782
48.825,25.783
48.84,25.899
48.855,26.005
48.87,25.888
48.885,25.817
48.9,25.871
48.915,25.925
48.93,25.809
48.945,25.661
48.96,25.869
48.975,25.934
48.99,25.93
49.005,25.833
49.02,25.866
49.035,25.886
49.05,25.904
49.065,25.957
49.08,25.921
49.095,25.866
49.11,25.828
49.125,25.961
49.14,26.053
49.155,25.939
49.17,25.901
49.185,25.823
49.2,25.805
49.215,25.875
49.23,25.715
49.245,25.875
49.26,25.956
49.275,25.915
49.29,25.806
49.305,25.763
49.32,25.712
49.335,25.741
49.35,25.746
49.365,25.679
49.38,25.867
49.395,25.916
49.41,25.904
49.425,25.884
49.44,26.005
49.455,25.815
49.47,25.65
49.485,25.702
49.5,25.79
49.515,25.717
49.53,25.841
49.545,25.873
49.56,25.719
49.575,25.772
49.59,25.762
49.605,25.839
49.62,25.821
49.635,25.815
49.65,25.834
49.665,25.916
49.68,25.915
49.695,26.063
49.71,26.052
49.725,25.973
49.74,25.905
49.755,25.931
49.77,25.853
49.785,25.727
49.8,25.772
49.815,25.744
49.83,25.835
49.845,25.984
49.86,25.89
49.875,25.876
49.89,25.838
49.905,25.864
49.92,25.83
49.935,25.735
49.95,25.803
49.965,25.903
49.98,25.93
49.995,25.8
50.01,25.878
50.025,25.854
50.04,25.8
50.055,25.859
50.07,25.882
50.085,25.837
50.1,25.826
50.115,25.809
50.13,25.804
50.145,25.819
50.16,26.006
50.175,25.969
50.19,25.967
50.205,25.968
50.22,25.916
50.235,25.965
50.25,25.878
50.265,25.795
50.28,25.756
50.295,25.739
50.31,25.776
50.325,25.828
50.34,25.748
50.355,25.825
50.37,25.666
50.385,25.702
50.4,25.825
50.415,25.911
50.43,25.657
50.445,25.684
50.46,25.81
50.475,25.846
50.49,25.845
50.505,25.919
50.52,25.808
50.535,25.708
50.55,25.898
50.565,25.952
50.58,25.749
50.595,25.789
50.61,25.788
50.625,25.795
50.64,25.796
50.655,25.753
50.67,25.814
50.685,25.798
50.7,25.742
50.715,25.798
50.73,25.695
50.745,25.654
50.76,25.716
50.775,25.682
50.79,25.747
50.805,25.745
50.82,25.823
50.835,25.807
50.85,25.808
50.865,25.934
50.88,25.695
50.895,25.717
50.91,25.728
50.925,25.799
50.94,25.87
50.955,25.812
50.97,25.676
50.985,25.733
51,25.736
51.015,25.803
51.03,25.701
51.045,25.665
51.06,25.708
51.075,25.888
51.09,25.905
51.105,25.896
51.12,25.769
51.135,25.754
51.15,25.683
51.165,25.704
51.18,25.726
51.195,25.806
51.21,25.837
51.225,25.745
51.24,25.843
51.255,25.96
51.27,25.743
51.285,25.658
51.3,25.556
51.315,25.802
51.33,25.803
51.345,25.823
51.36,25.948
51.375,25.864
51.39,25.757
51.405,25.815
51.42,25.857
51.435,25.806
51.45,25.778
51.465,25.784
51.48,25.811
51.495,25.701
51.51,25.59
51.525,25.529
51.54,25.615
51.555,25.845
51.57,25.843
51.585,25.678
51.6,25.623
51.615,25.61
51.63,25.723
51.645,25.754
51.66,25.642
51.675,25.627
51.69,25.717
51.705,25.768
51.72,25.84
51.735,25.821
51.75,25.792
51.765,25.721
51.78,25.719
51.795,25.787
51.81,25.688
51.825,25.682
51.84,25.898
51.855,25.744
51.87,25.688
51.885,25.602
51.9,25.682
51.915,25.748
51.93,25.781
51.945,25.862
51.96,25.777
51.975,25.601
51.99,25.751
52.005,25.785
52.02,25.688
52.035,25.729
52.05,25.759
52.065,25.593
52.08,25.562
52.095,25.673
52.11,25.748
52.125,25.804
52.14,25.827
52.155,25.736
52.17,25.721
52.185,25.671
52.2,25.681
52.215,25.875
52.23,25.781
52.245,25.785
52.26,25.741
52.275,25.653
52.29,25.892
52.305,25.895
52.32,25.776
52.335,25.761
52.35,25.75
52.365,25.712
52.38,25.637
52.395,25.554
52.41,25.632
52.425,25.737
52.44,25.93
52.455,25.854
52.47,25.696
52.485,25.752
52.5,25.694
52.515,25.806
52.53,25.78
52.545,25.7
52.56,25.763
52.575,25.792
52.59,25.789
52.605,25.863
52.62,25.846
52.635,25.813
52.65,25.754
52.665,25.618
52.68,25.701
52.695,25.762
52.71,25.844
52.725,25.894
52.74,25.791
52.755,25.739
52.77,25.881
52.785,25.929
52.8,25.853
52.815,25.829
52.83,25.898
52.845,25.97
52.86,25.967
52.875,25.862
52.89,25.761
52.905,25.852
52.92,25.868
52.935,25.775
52.95,25.957
52.965,26.135
52.98,26.017
52.995,25.963
53.01,25.936
53.025,25.921
53.04,25.792
53.055,25.77
53.07,25.945
53.085,25.953
53.1,25.849
53.115,25.977
53.13,26.167
53.145,26.104
53.16,26.019
53.175,26.117
53.19,26.079
53.205,26.339
53.22,26.281
53.235,26.212
53.25,26.404
53.265,26.359
53.28,26.442
53.295,26.629
53.31,26.463
53.325,26.37
53.34,26.399
53.355,26.535
53.37,26.463
53.385,26.538
53.4,26.49
53.415,26.483
53.43,26.614
53.445,26.571
53.46,26.45
53.475,26.58
53.49,26.591
53.505,26.53
53.52,26.669
53.535,26.57
53.55,26.683
53.565,26.635
53.58,26.552
53.595,26.529
53.61,26.597
53.625,26.528
53.64,26.569
53.655,26.562
53.67,26.591
53.685,26.805
53.7,26.729
53.715,26.568
53.73,26.523
53.745,26.614
53.76,26.652
53.775,26.566
53.79,26.573
53.805,26.474
53.82,26.312
53.835,26.278
53.85,26.373
53.865,26.292
53.88,26.167
53.895,26.132
53.91,26.195
53.925,26.33
53.94,26.189
53.955,25.971
53.97,25.984
53.985,26.106
54,26.1
54.015,25.81
54.03,25.745
54.045,25.876
54.06,25.991
54.075,26.069
54.09,26.061
54.105,26.021
54.12,25.906
54.135,25.884
54.15,25.902
54.165,25.92
54.18,25.919
54.195,25.814
54.21,25.785
54.225,25.787
54.24,25.811
54.255,25.87
54.27,25.82
54.285,25.845
54.3,25.85
54.315,25.773
54.33,25.821
54.345,25.766
54.36,25.555
54.375,25.741
54.39,25.775
54.405,25.73
54.42,25.743
54.435,25.801
54.45,25.771
54.465,25.727
54.48,25.747
54.495,25.854
54.51,25.712
54.525,25.684
54.54,25.631
54.555,25.73
54.57,25.805
54.585,25.841
54.6,25.711
54.615,25.633
54.63,25.749
54.645,25.887
54.66,25.694
54.675,25.54
54.69,25.831
54.705,25.781
54.72,25.69
54.735,25.76
54.75,25.716
54.765,25.6
54.78,25.732
54.795,25.75
54.81,25.72
54.825,25.661
54.84,25.813
54.855,25.734
54.87,25.641
54.885,25.587
54.9,25.703
54.915,25.812
54.93,25.831
54.945,25.777
54.96,25.809
54.975,25.828
54.99,25.933
55.005,25.785
55.02,25.641
55.035,25.535
55.05,25.626
55.065,25.539
55.08,25.547
55.095,25.622
55.11,25.727
55.125,25.885
55.14,25.831
55.155,25.611
55.17,25.579
55.185,25.667
55.2,25.658
55.215,25.659
55.23,25.743
55.245,25.706
55.26,25.593
55.275,25.575
55.29,25.702
55.305,25.785
55.32,25.623
55.335,25.599
55.35,25.639
55.365,25.702
55.38,25.659
55.395,25.636
55.41,25.676
55.425,25.647
55.44,25.609
55.455,25.531
55.47,25.684
55.485,25.713
55.5,25.676
55.515,25.524
55.53,25.635
55.545,25.749
55.56,25.588
55.575,25.557
55.59,25.644
55.605,25.814
55.62,25.78
55.635,25.677
55.65,25.669
55.665,25.795
55.68,25.56
55.695,25.613
55.71,25.602
55.725,25.61
55.74,25.868
55.755,25.986
55.77,25.825
55.785,25.824
55.8,25.74
55.815,25.658
55.83,25.812
55.845,25.65
55.86,25.651
55.875,25.787
55.89,25.726
55.905,25.801
55.92,25.852
55.935,25.794
55.95,25.821
55.965,25.863
55.98,25.923
55.995,25.685
56.01,25.625
56.025,25.76
56.04,25.839
56.055,25.872
56.07,25.884
56.085,25.728
56.1,25.611
56.115,25.836
56.13,25.792
56.145,25.826
56.16,25.942
56.175,25.936
56.19,25.769
56.205,25.672
56.22,25.827
56.235,25.921
56.25,25.881
56.265,25.935
56.28,25.845
56.295,25.772
56.31,25.753
56.325,26.045
56.34,26.097
56.355,25.98
56.37,26.019
56.385,25.969
56.4,25.909
56.415,25.865
56.43,25.947
56.445,25.969
56.46,25.923
56.475,26.01
56.49,26.033
56.505,26.12
56.52,26.165
56.535,26.275
56.55,26.3
56.565,26.314
56.58,26.294
56.595,26.281
56.61,26.188
56.625,26.312
56.64,26.341
56.655,26.373
56.67,26.471
56.685,26.591
56.7,26.645
56.715,26.788
56.73,26.856
56.745,26.973
56.76,26.943
56.775,27.002
56.79,27.224
56.805,27.158
56.82,27.32
56.835,27.601
56.85,27.671
56.865,27.536
56.88,27.507
56.895,27.579
56.91,27.868
56.925,27.711
56.94,27.902
56.955,28.1
56.97,28.153
56.985,28.21
57,28.246
57.015,28.252
57.03,28.234
57.045,28.255
57.06,28.25
57.075,28.424
57.09,28.588
57.105,28.528
57.12,28.433
57.135,28.342
57.15,28.26
57.165,28.113
57.18,28.001
57.195,28.284
57.21,28.28
57.225,28.058
57.24,27.983
57.255,27.786
57.27,27.91
57.285,27.981
57.3,27.905
57.315,27.843
57.33,27.907
57.345,27.863
57.36,27.716
57.375,27.66
57.39,27.408
57.405,27.405
57.42,27.482
57.435,27.347
57.45,27.192
57.465,26.925
57.48,26.92
57.495,26.895
57.51,26.818
57.525,26.788
57.54,26.832
57.555,26.657
57.57,26.589
57.585,26.584
57.6,26.491
57.615,26.506
57.63,26.31
57.645,26.225
57.66,26.312
57.675,26.289
57.69,26.079
57.705,25.938
57.72,26.034
57.735,25.998
57.75,25.981
57.765,26.113
57.78,25.983
57.795,25.943
57.81,26.052
57.825,25.904
57.84,25.856
57.855,25.823
57.87,25.808
57.885,25.724
57.9,25.739
57.915,25.743
57.93,25.701
57.945,25.673
57.96,25.718
57.975,25.641
57.99,25.692
58.005,25.683
58.02,25.53
58.035,25.702
58.05,25.605
58.065,25.556
58.08,25.532
58.095,25.607
58.11,25.777
58.125,25.773
58.14,25.7
58.155,25.759
58.17,25.626
58.185,25.573
58.2,25.604
58.215,25.591
58.23,25.475
58.245,25.488
58.26,25.581
58.275,25.576
58.29,25.423
58.305,25.342
58.32,25.53
58.335,25.719
58.35,25.82
58.365,25.705
58.38,25.794
58.395,25.74
58.41,25.576
58.425,25.497
58.44,25.569
58.455,25.576
58.47,25.608
58.485,25.616
58.5,25.66
58.515,25.654
58.53,25.674
58.545,25.701
58.56,25.584
58.575,25.475
58.59,25.538
58.605,25.635
58.62,25.744
58.635,25.6
58.65,25.589
58.665,25.487
58.68,25.576
58.695,25.551
58.71,25.456
58.725,25.452
58.74,25.542
58.755,25.658
58.77,25.666
58.785,25.533
58.8,25.541
58.815,25.415
58.83,25.493
58.845,25.493
58.86,25.394
58.875,25.368
58.89,25.455
58.905,25.518
58.92,25.785
58.935,25.769
58.95,25.58
58.965,25.573
58.98,25.536
58.995,25.363
59.01,25.32
59.025,25.648
59.04,25.734
59.055,25.593
59.07,25.576
59.085,25.616
59.1,25.648
59.115,25.47
59.13,25.414
59.145,25.522
59.16,25.596
59.175,25.571
59.19,25.388
59.205,25.407
59.22,25.549
59.235,25.555
59.25,25.606
59.265,25.534
59.28,25.515
59.295,25.609
59.31,25.506
59.325,25.592
59.34,25.688
59.355,25.539
59.37,25.425
59.385,25.445
59.4,25.44
59.415,25.44
59.43,25.438
59.445,25.468
59.46,25.451
59.475,25.524
59.49,25.562
59.505,25.538
59.52,25.455
59.535,25.438
59.55,25.444
59.565,25.507
59.58,25.526
59.595,25.529
59.61,25.612
59.625,25.614
59.64,25.589
59.655,25.614
59.67,25.551
59.685,25.505
59.7,25.463
59.715,25.435
59.73,25.542
59.745,25.439
59.76,25.507
59.775,25.558
59.79,25.563
59.805,25.504
59.82,25.393
59.835,25.413
59.85,25.465
59.865,25.374
59.88,25.401
59.895,25.571
59.91,25.636
59.925,25.569
59.94,25.521
59.955,25.36
59.97,25.494
59.985,25.537
60,25.488
60.015,25.591
60.03,25.632
60.045,25.531
60.06,25.614
60.075,25.67
60.09,25.625
60.105,25.584
60.12,25.558
60.135,25.501
60.15,25.316
60.165,25.28
60.18,25.344
60.195,25.449
60.21,25.421
60.225,25.498
60.24,25.589
60.255,25.403
60.27,25.446
60.285,25.53
60.3,25.555
60.315,25.545
60.33,25.617
60.345,25.516
60.36,25.448
60.375,25.386
60.39,25.423
60.405,25.509
60.42,25.633
60.435,25.664
60.45,25.573
60.465,25.521
60.48,25.54
60.495,25.487
60.51,25.485
60.525,25.462
60.54,25.397
60.555,25.317
60.57,25.285
60.585,25.334
60.6,25.357
60.615,25.471
60.63,25.579
60.645,25.463
60.66,25.358
60.675,25.443
60.69,25.443
60.705,25.57
60.72,25.665
60.735,25.588
60.75,25.63
60.765,25.581
60.78,25.472
60.795,25.407
60.81,25.555
60.825,25.558
60.84,25.441
60.855,25.425
60.87,25.452
60.885,25.462
60.9,25.655
60.915,25.532
60.93,25.597
60.945,25.577
60.96,25.621
60.975,25.559
60.99,25.387
61.005,25.475
61.02,25.561
61.035,25.382
61.05,25.395
61.065,25.455
61.08,25.459
61.095,25.291
61.11,25.436
61.125,25.563
61.14,25.477
61.155,25.409
61.17,25.493
61.185,25.58
61.2,25.56
61.215,25.648
61.23,25.67
61.245,25.478
61.26,25.388
61.275,25.353
61.29,25.417
61.305,25.573
61.32,25.511
61.335,25.508
61.35,25.558
61.365,25.542
61.38,25.528
61.395,25.571
61.41,25.506
61.425,25.517
61.44,25.58
61.455,25.552
61.47,25.667
61.485,25.701
61.5,25.583
61.515,25.569
61.53,25.665
61.545,25.657
61.56,25.635
61.575,25.673
61.59,25.604
61.605,25.582
61.62,25.675
61.635,25.58
61.65,25.581
61.665,25.559
61.68,25.533
61.695,25.559
61.71,25.533
61.725,25.728
61.74,25.741
61.755,25.681
61.77,25.747
61.785,25.674
61.8,25.646
61.815,25.589
61.83,25.625
61.845,25.677
61.86,25.717
61.875,25.687
61.89,25.627
61.905,25.614
61.92,25.698
61.935,25.824
61.95,25.84
61.965,25.674
61.98,25.593
61.995,25.75
62.01,25.937
62.025,25.998
62.04,25.783
62.055,25.696
62.07,25.887
62.085,25.72
62.1,25.835
62.115,25.947
62.13,26.065
62.145,26.09
62.16,26.155
62.175,26.366
62.19,26.408
62.205,26.378
62.22,26.322
62.235,26.376
62.25,26.479
62.265,26.589
62.28,26.714
62.295,26.811
62.31,26.942
62.325,27.183
62.34,27.258
62.355,27.397
62.37,27.479
62.385,27.505
62.4,27.52
62.415,27.657
62.43,27.795
62.445,27.839
62.46,27.979
62.475,27.996
62.49,27.925
62.505,28.282
62.52,28.478
62.535,28.553
62.55,28.712
62.565,28.749
62.58,28.678
62.595,28.761
62.61,28.888
62.625,28.875
62.64,28.915
62.655,28.955
62.67,28.997
62.685,28.991
62.7,29.005
62.715,29.016
62.73,29.052
62.745,29.058
62.76,29.244
62.775,29.203
62.79,28.924
62.805,28.933
62.82,28.959
62.835,28.952
62.85,28.833
62.865,28.65
62.88,28.589
62.895,28.615
62.91,28.541
62.925,28.253
62.94,28.303
62.955,28.311
62.97,28.422
62.985,28.325
63,28.012
63.015,27.873
63.03,27.761
63.045,27.743
63.06,27.71
63.075,27.546
63.09,27.316
63.105,27.337
63.12,27.303
63.135,27.3
63.15,27.147
63.165,26.888
63.18,26.844
63.195,26.663
63.21,26.613
63.225,26.543
63.24,26.506
63.255,26.47
63.27,26.531
63.285,26.407
63.3,26.23
63.315,26.245
63.33,26.126
63.345,25.973
63.36,25.994
63.375,26.087
63.39,26.093
63.405,26.042
63.42,25.85
63.435,25.783
63.45,25.779
63.465,25.783
63.48,25.917
63.495,25.844
63.51,25.728
63.525,25.719
63.54,25.646
63.555,25.463
63.57,25.606
63.585,25.612
63.6,25.427
63.615,25.574
63.63,25.657
63.645,25.586
63.66,25.615
63.675,25.479
63.69,25.358
63.705,25.482
63.72,25.414
63.735,25.383
63.75,25.327
63.765,25.479
63.78,25.609
63.795,25.556
63.81,25.43
63.825,25.33
63.84,25.393
63.855,25.497
63.87,25.373
63.885,25.369
63.9,25.457
63.915,25.54
63.93,25.522
63.945,25.591
63.96,25.527
63.975,25.359
63.99,25.397
64.005,25.556
64.02,25.496
64.035,25.452
64.05,25.533
64.065,25.446
64.08,25.45
64.095,25.465
64.11,25.509
64.125,25.399
64.14,25.411
64.155,25.375
64.17,25.289
64.185,25.115
64.2,25.301
64.215,25.515
64.23,25.349
64.245,25.417
64.26,25.471
64.275,25.41
64.29,25.355
64.305,25.324
64.32,25.323
64.335,25.329
64.35,25.412
64.365,25.445
64.38,25.385
64.395,25.468
64.41,25.516
64.425,25.445
64.44,25.393
64.455,25.345
64.47,25.281
64.485,25.347
64.5,25.487
64.515,25.397
64.53,25.394
64.545,25.4
64.56,25.493
64.575,25.333
64.59,25.327
64.605,25.392
64.62,25.334
64.635,25.237
64.65,25.268
64.665,25.293
64.68,25.209
64.695,25.274
64.71,25.275
64.725,25.236
64.74,25.224
64.755,25.165
64.77,25.228
64.785,25.302
64.8,25.265
64.815,25.187
64.83,25.184
64.845,25.093
64.86,25.154
64.875,25.209
64.89,25.234
64.905,25.275
64.92,25.306
64.935,25.332
64.95,25.228
64.965,25.212
64.98,25.168
64.995,25.057
65.01,25.229
65.025,25.295
65.04,25.264
65.055,25.304
65.07,25.24
65.085,25.25
65.1,25.355
65.115,25.422
65.13,25.324
65.145,25.348
65.16,25.385
65.175,25.318
65.19,25.093
65.205,25.129
65.22,25.332
65.235,25.288
65.25,25.239
65.265,25.215
65.28,25.181
65.295,25.274
65.31,25.398
65.325,25.543
65.34,25.463
65.355,25.148
65.37,25.192
65.385,25.26
65.4,25.238
65.415,25.391
65.43,25.385
65.445,25.26
65.46,25.265
65.475,25.302
65.49,25.166
65.505,25.248
65.52,25.192
65.535,25.099
65.55,25.143
65.565,25.272
65.58,25.348
65.595,25.235
65.61,25.07
65.625,25.253
65.64,25.445
65.655,25.309
65.67,25.261
65.685,25.18
65.7,25.236
65.715,25.375
65.73,25.276
65.745,25.2
65.76,25.3
65.775,25.349
65.79,25.315
65.805,25.29
65.82,25.055
65.835,25.034
65.85,25.351
65.865,25.397
65.88,25.205
65.895,25.18
65.91,25.193
65.925,25.195
65.94,25.282
65.955,25.317
65.97,25.29
65.985,25.234
66,25.136
66.015,25.136
66.03,25.059
66.045,25.113
66.06,25.15
66.075,25.081
66.09,25.076
66.105,25.063
66.12,25.169
66.135,25.327
66.15,25.365
66.165,25.27
66.18,25.251
66.195,25.178
66.21,25.095
66.225,25.131
66.24,25.117
66.255,25.184
66.27,25.337
66.285,25.271
66.3,25.15
66.315,25.21
66.33,25.245
66.345,25.151
66.36,25.122
66.375,25.151
66.39,25.226
66.405,25.21
66.42,25.12
66.435,25.169
66.45,25.26
66.465,25.101
66.48,25.103
66.495,25.242
66.51,25.198
66.525,25.241
66.54,25.183
66.555,25.1
66.57,25.149
66.585,25.235
66.6,25.246
66.615,25.114
66.63,25.125
66.645,25.274
66.66,25.242
66.675,25.189
66.69,25.176
66.705,25.123
66.72,25.104
66.735,25.219
66.75,25.097
66.765,25.08
66.78,25.139
66.795,25.112
66.81,25.156
66.825,25.157
66.84,25.258
66.855,25.119
66.87,25.071
66.885,25.226
66.9,25.127
66.915,25.02
66.93,25
66.945,25.056
66.96,25.081
66.975,25.067
66.99,25.05
67.005,25.094
67.02,25.115
67.035,25.243
67.05,25.267
67.065,25.162
67.08,24.982
67.095,25.062
67.11,25.254
67.125,25.277
67.14,25.23
67.155,25.133
67.17,25.12
67.185,25.148
67.2,25.064
67.215,25.116
67.23,25.259
67.245,25.164
67.26,25.188
67.275,25.238
67.29,25.257
67.305,25.148
67.32,25.147
67.335,25.154
67.35,25.25
67.365,25.278
67.38,25.259
67.395,25.202
67.41,25.096
67.425,24.925
67.44,24.861
67.455,24.95
67.47,25.188
67.485,25.18
67.5,25.11
67.515,24.975
67.53,24.931
67.545,25.103
67.56,25.143
67.575,25.122
67.59,25.146
67.605,25.176
67.62,25.31
67.635,25.264
67.65,25.194
67.665,25.324
67.68,25.221
67.695,25.059
67.71,25.099
67.725,25.301
67.74,25.176
67.755,25.101
67.77,25.18
67.785,25.154
67.8,25.114
67.815,25.04
67.83,24.968
67.845,25.057
67.86,25.102
67.875,25.136
67.89,25.091
67.905,25.093
67.92,25.226
67.935,25.159
67.95,24.986
67.965,25.107
67.98,25.063
67.995,25.036
68.01,25.116
68.025,25.146
68.04,25.101
68.055,25.086
68.07,25.134
68.085,24.98
68.1,24.884
68.115,25.044
68.13,25.19
68.145,25.139
68.16,25.043
68.175,24.991
68.19,25.081
68.205,25.205
68.22,25.292
68.235,25.074
68.25,25.044
68.265,24.917
68.28,24.905
68.295,25.002
68.31,24.935
68.325,24.959
68.34,25.102
68.355,25.269
68.37,25.24
68.385,25.174
68.4,25.14
68.415,25.068
68.43,25.062
68.445,25.014
68.46,24.998
68.475,25.12
68.49,25.14
68.505,24.963
68.52,24.958
68.535,25.153
68.55,25.137
68.565,25.074
68.58,25.172
68.595,25.315
68.61,25.177
68.625,24.996
68.64,25.085
68.655,25.076
68.67,24.979
68.685,24.987
68.7,25.106
68.715,25.122
68.73,24.973
68.745,25.047
68.76,25.108
68.775,25.108
68.79,24.981
68.805,24.938
68.82,25.227
68.835,25.165
68.85,25.083
68.865,24.97
68.88,25.098
68.895,25.147
68.91,25.085
68.925,25.135
68.94,25.25
68.955,25.194
68.97,25.127
68.985,25.065
69,25.135
69.015,25.024
69.03,25.002
69.045,25.136
69.06,25.145
69.075,25.11
69.09,25.226
69.105,25.087
69.12,25.034
69.135,24.977
69.15,24.974
69.165,24.978
69.18,24.872
69.195,25.006
69.21,25.052
69.225,24.977
69.24,25.008
69.255,25.023
69.27,25.034
69.285,25.081
69.3,25.195
69.315,25.038
69.33,24.967
69.345,25.092
69.36,25.082
69.375,24.969
69.39,24.93
69.405,25.057
69.42,25.107
69.435,25.152
69.45,25.152
69.465,25.078
69.48,25.088
69.495,24.953
69.51,25.06
69.525,25.171
69.54,25.146
69.555,25.073
69.57,25.132
69.585,25.102
69.6,25.044
69.615,24.98
69.63,25.002
69.645,25.077
69.66,25.095
69.675,25.126
69.69,25.058
69.705,25.043
69.72,25.15
69.735,25.028
69.75,24.997
69.765,25.041
69.78,24.936
69.795,24.949
69.81,24.971
69.825,24.986
69.84,24.951
69.855,24.949
69.87,25.032
69.885,24.997
69.9,24.986
69.915,24.999
69.93,25.053
69.945,24.992
69.96,25
69.975,24.949
69.99,24.937
70.005,25.075
70.02,25.134
70.035,25.251
70.05,25.115
70.065,25.108
70.08,25.078
70.095,25.055
70.11,24.952
70.125,24.938
70.14,24.971
70.155,24.86
70.17,24.997
70.185,25.103
70.2,24.938
70.215,24.908
70.23,24.939
70.245,25.014
70.26,24.951
70.275,25.036
70.29,25.091
70.305,25.162
70.32,25.147
70.335,25.103
70.35,25.079
70.365,25.195
70.38,25.185
70.395,25.106
70.41,25
70.425,25.057
70.44,24.966
70.455,24.932
70.47,25.03
70.485,24.933
70.5,24.788
70.515,24.957
70.53,24.977
70.545,24.97
70.56,24.964
70.575,24.909
70.59,25.073
70.605,25.081
70.62,25.104
70.635,25.348
70.65,25.225
70.665,24.986
70.68,25.005
70.695,25.071
70.71,24.98
70.725,24.916
70.74,25.044
70.755,25.112
70.77,25.191
70.785,25.312
70.8,25.334
70.815,25.288
70.83,25.169
70.845,25.18
70.86,25.073
70.875,25.088
70.89,25.151
70.905,25.123
70.92,25.092
70.935,25.129
70.95,25.013
70.965,25.003
70.98,25.123
70.995,25.139
71.01,25.14
71.025,25.152
71.04,25.09
71.055,25.144
71.07,25.276
71.085,25.237
71.1,25.324
71.115,25.285
71.13,25.228
71.145,25.34
71.16,25.216
71.175,25.204
71.19,25.237
71.205,25.357
71.22,25.311
71.235,25.194
71.25,25.192
71.265,25.252
71.28,25.251
71.295,25.28
71.31,25.328
71.325,25.341
71.34,25.261
71.355,25.211
71.37,25.228
71.385,25.259
71.4,25.296
71.415,25.233
71.43,25.189
71.445,25.074
71.46,25.187
71.475,25.244
71.49,25.07
71.505,25.086
71.52,25.164
71.535,25.156
71.55,25.051
71.565,24.963
71.58,24.966
71.595,25.112
71.61,25.219
71.625,25.178
71.64,25.172
71.655,25.159
71.67,24.97
71.685,24.882
71.7,24.864
71.715,25.034
71.73,25.026
71.745,24.879
71.76,24.991
71.775,25.062
71.79,24.997
71.805,24.947
71.82,24.848
71.835,24.818
71.85,24.806
71.865,24.833
71.88,24.954
71.895,25.189
71.91,25.235
71.925,25.053
71.94,25.029
71.955,24.92
71.97,24.903
71.985,24.962
72,24.948
72.015,25.011
72.03,24.742
72.045,24.713
72.06,24.951
72.075,24.956
72.09,24.921
72.105,24.894
72.12,24.947
72.135,25.025
72.15,24.919
72.165,24.809
72.18,24.847
72.195,25.012
72.21,24.91
72.225,24.901
72.24,24.993
72.255,24.994
72.27,24.961
72.285,25.035
72.3,24.924
72.315,24.881
72.33,25.093
72.345,25.022
72.36,24.957
72.375,24.954
72.39,25.071
72.405,24.924
72.42,24.713
72.435,24.829
72.45,24.917
72.465,24.841
72.48,24.816
72.495,24.847
72.51,24.855
72.525,24.832
72.54,24.738
72.555,24.996
72.57,24.956
72.585,24.972
72.6,25.044
72.615,24.963
72.63,24.959
72.645,24.984
72.66,24.835
72.675,24.842
72.69,25.023
72.705,24.988
72.72,24.964
72.735,24.932
72.75,24.932
72.765,24.957
72.78,24.944
72.795,24.966
72.81,24.807
72.825,24.831
72.84,24.761
72.855,24.905
72.87,24.948
72.885,25.003
72.9,24.904
72.915,24.838
72.93,24.884
72.945,24.991
72.96,25.028
72.975,25.077
72.99,24.865
73.005,24.786
73.02,24.838
73.035,24.863
73.05,24.925
73.065,24.899
73.08,24.962
73.095,24.875
73.11,24.844
73.125,24.825
73.14,24.891
73.155,24.881
73.17,24.769
73.185,24.896
73.2,24.905
73.215,24.873
73.23,24.928
73.245,24.936
73.26,24.91
73.275,24.815
73.29,24.896
73.305,24.871
73.32,24.839
73.335,25.018
73.35,25.046
73.365,24.802
73.38,24.921
73.395,25.039
73.41,25.002
73.425,24.895
73.44,24.944
73.455,24.771
73.47,24.798
73.485,24.92
73.5,25.051
73.515,25.063
73.53,24.923
73.545,25.011
73.56,24.963
73.575,24.986
73.59,25.007
73.605,24.935
73.62,24.697
73.635,24.764
73.65,24.946
73.665,25.025
73.68,24.979
73.695,25.03
73.71,25.088
73.725,25.09
73.74,25.034
73.755,25.014
73.77,25.04
73.785,25.05
73.8,25.025
73.815,25.092
73.83,25.158
73.845,25.244
73.86,25.372
73.875,25.309
73.89,25.237
73.905,25.345
73.92,25.503
73.935,25.313
73.95,25.215
73.965,25.298
73.98,25.326
73.995,25.366
74.01,25.509
74.025,25.428
74.04,25.473
74.055,25.578
74.07,25.623
74.085,25.486
74.1,25.406
74.115,25.572
74.13,25.455
74.145,25.361
74.16,25.444
74.175,25.581
74.19,25.592
74.205,25.504
74.22,25.405
74.235,25.517
74.25,25.618
74.265,25.494
74.28,25.465
74.295,25.418
74.31,25.468
74.325,25.415
74.34,25.419
74.355,25.37
74.37,25.43
74.385,25.326
74.4,25.335
74.415,25.398
74.43,25.446
74.445,25.389
74.46,25.448
74.475,25.398
74.49,25.392
74.505,25.489
74.52,25.457
74.535,25.412
74.55,25.397
74.565,25.331
74.58,25.169
74.595,25.204
74.61,25.17
74.625,25.16
74.64,25.015
74.655,25.18
74.67,25.182
74.685,25.14
74.7,25.353
74.715,25.271
74.73,25.214
74.745,25.028
74.76,24.93
74.775,24.965
74.79,25.038
74.805,25.041
74.82,25.117
74.835,25.16
74.85,25.131
74.865,25.198
74.88,25.188
74.895,25.25
74.91,25.225
74.925,25.131
74.94,25.154
74.955,25.125
74.97,25.079
74.985,25.054
75,24.867
75.015,24.636
75.03,24.73
75.045,24.496
75.06,24.515
75.075,24.476
75.09,24.302
75.105,24.093
75.12,24.18
75.135,24.078
75.15,23.914
75.165,23.843
75.18,23.791
75.195,24.265
75.21,24.225
75.225,23.842
75.24,23.669
75.255,23.685
75.27,24.1
75.285,23.516
75.3,23.57
75.315,23.398
75.33,23.161
75.345,21.569
