24.99,0
25.005,-0.283
25.02,-0.842
25.035,-1.456
25.05,0.302
25.065,2.217
25.08,1.212
25.095,-0.709
25.11,-0.463
25.125,-0.066
25.14,-0.157
25.155,1.6
25.17,0.287
25.185,0.296
25.2,0.778
25.215,-0.013
25.23,0.562
25.245,0.465
25.26,-0.248
25.275,-0.681
25.29,-0.666
25.305,-0.407
25.32,0.284
25.335,-0.077
25.35,0.599
25.365,0.5
25.38,-0.218
25.395,-0.125
25.41,-0.02
25.425,-0.076
25.44,-0.1
25.455,0.211
25.47,-0.413
25.485,0.264
25.5,0.042
25.515,-0.828
25.53,-0.072
25.545,0.517
25.56,-0.165
25.575,-0.113
25.59,-0.433
25.605,0.231
25.62,0.738
25.635,0.66
25.65,0.654
25.665,0.928
25.68,0.547
25.695,0.14
25.71,0.228
25.725,0.484
25.74,0.482
25.755,0.603
25.77,0.322
25.785,0.247
25.8,-0.036
25.815,0.197
25.83,0.067
25.845,-0.597
25.86,0.25
25.875,1.039
25.89,0.576
25.905,-0.242
25.92,-0.318
25.935,-0.011
25.95,0.187
25.965,0.085
25.98,0.416
25.995,0.121
26.01,-0.208
26.025,0.39
26.04,0.285
26.055,0.073
26.07,0.145
26.085,0.281
26.1,0.578
26.115,0.824
26.13,0.131
26.145,-0.825
26.16,-0.385
26.175,0.11
26.19,-0.307
26.205,0.045
26.22,0.443
26.235,0.55
26.25,0.141
26.265,-0.114
26.28,-0.034
26.295,0.347
26.31,-0.28
26.325,-0.473
26.34,-0.225
26.355,-0.15
26.37,0.144
26.385,-0.049
26.4,0.394
26.415,0.249
26.43,-0.032
26.445,-0.022
26.46,-0.451
26.475,-0.354
26.49,-0.034
26.505,-0.119
26.52,0.427
26.535,-0.044
26.55,-0.214
26.565,0.274
26.58,0.761
26.595,0.599
26.61,0.603
26.625,0.627
26.64,-0.042
26.655,-0.037
26.67,0.18
26.685,-0.034
26.7,-0.227
26.715,-0.568
26.73,-0.731
26.745,-0.038
26.76,-0.082
26.775,-0.093
26.79,-0.659
26.805,-0.247
26.82,-0.164
26.835,-0.555
26.85,-0.516
26.865,-0.347
26.88,0.138
26.895,0.155
26.91,-0.025
26.925,-0.138
26.94,-0.57
26.955,-0.547
26.97,0.252
26.985,0.435
27,0.321
27.015,0.374
27.03,0.348
27.045,0.054
27.06,0.286
27.075,0.829
27.09,1.185
27.105,0.554
27.12,-0.041
27.135,-0.449
27.15,-0.243
27.165,0.144
27.18,-0.087
27.195,-0.411
27.21,-0.204
27.225,-0.82
27.24,-0.405
27.255,-0.053
27.27,-0.102
27.285,0.186
27.3,0.385
27.315,0.005
27.33,-0.001
27.345,-0.086
27.36,0.026
27.375,0.15
27.39,0.241
27.405,0.298
27.42,0.375
27.435,0.914
27.45,0.107
27.465,-0.82
27.48,-0.405
27.495,0.052
27.51,-0.492
27.525,-0.238
27.54,-0.117
27.555,0.361
27.57,0.053
27.585,-0.105
27.6,-0.204
27.615,-0.146
27.63,0.04
27.645,0.148
27.66,-0.393
27.675,-0.355
27.69,-0.282
27.705,-0.243
27.72,0.171
27.735,0.477
27.75,0.665
27.765,0.617
27.78,0.18
27.795,0.184
27.81,0.239
27.825,0.228
27.84,-0.249
27.855,0.063
27.87,0.066
27.885,-0.022
27.9,-0.178
27.915,-0.171
27.93,-0.122
27.945,-0.285
27.96,-0.363
27.975,-0.522
27.99,0.201
28.005,0.531
28.02,-0.183
28.035,-0.576
28.05,-0.252
28.065,-0.281
28.08,-0.285
28.095,-0.045
28.11,-0.315
28.125,-0.214
28.14,-0.399
28.155,-0.421
28.17,-0.342
28.185,-0.123
28.2,0.328
28.215,-0.164
28.23,-0.036
28.245,-0.465
28.26,-0.292
28.275,-0.269
28.29,-0.365
28.305,-0.251
28.32,-0.345
28.335,-0.337
28.35,-0.346
28.365,-0.395
28.38,-0.341
28.395,-0.822
28.41,-0.355
28.425,0.046
28.44,-0.045
28.455,0.008
28.47,0.141
28.485,-0.337
28.5,-0.34
28.515,-0.291
28.53,-0.406
28.545,-0.207
28.56,-0.174
28.575,-0.239
28.59,-0.291
28.605,0.153
28.62,-0.179
28.635,-0.22
28.65,-0.449
28.665,-0.674
28.68,-0.421
28.695,-0.065
28.71,-0.562
28.725,-0.806
28.74,-0.505
28.755,-0.371
28.77,-0.7
28.785,-0.387
28.8,-0.318
28.815,-0.233
28.83,-0.233
28.845,-0.112
28.86,-0.542
28.875,-0.255
28.89,0.193
28.905,0.298
28.92,0.163
28.935,-0.329
28.95,-0.284
28.965,-0.052
28.98,0.069
28.995,0.055
29.01,-0.106
29.025,-0.045
29.04,0.152
29.055,0.031
29.07,0.149
29.085,0
29.1,-0.149
29.115,0.416
29.13,-0.237
29.145,-0.429
29.16,-0.268
29.175,0.066
29.19,0.22
29.205,0.222
29.22,-0.017
29.235,-0.007
29.25,-0.336
29.265,-0.822
29.28,-0.608
29.295,-0.493
29.31,-0.497
29.325,0.099
29.34,0.199
29.355,0.057
29.37,0.125
29.385,0.178
29.4,-0.347
29.415,0.212
29.43,0.73
29.445,0.52
29.46,0.167
29.475,-0.417
29.49,-0.627
29.505,0.115
29.52,0.304
29.535,-0.025
29.55,-0.309
29.565,-0.254
29.58,0.569
29.595,0.263
29.61,-0.024
29.625,0.27
29.64,0.454
29.655,0.509
29.67,0.52
29.685,0.288
29.7,0.733
29.715,0.638
29.73,0.289
29.745,0.486
29.76,0.499
29.775,0.41
29.79,0.102
29.805,0.771
29.82,0.945
29.835,0.993
29.85,1.425
29.865,0.83
29.88,0.889
29.895,1.486
29.91,1.988
29.925,2.046
29.94,1.739
29.955,2.482
29.97,2.327
29.985,2.037
30,2.112
30.015,2.657
30.03,2.386
30.045,2.224
30.06,2.432
30.075,2.376
30.09,2.499
30.105,2.526
30.12,2.8
30.135,3.244
30.15,2.625
30.165,2.007
30.18,2.37
30.195,2.92
30.21,3.025
30.225,2.601
30.24,2.413
30.255,2.935
30.27,2.287
30.285,1.706
30.3,1.871
30.315,2.564
30.33,2.702
30.345,1.961
30.36,1.768
30.375,1.95
30.39,2.139
30.405,1.778
30.42,1.166
30.435,1.131
30.45,1.182
30.465,0.859
30.48,0.93
30.495,0.933
30.51,0.772
30.525,1.004
30.54,0.713
30.555,0.736
30.57,1.165
30.585,1.268
30.6,0.758
30.615,0.386
30.63,0.338
30.645,0.092
30.66,0.192
30.675,0.068
30.69,-0.269
30.705,-0.085
30.72,-0.181
30.735,-0.163
30.75,0.289
30.765,0.379
30.78,-0.017
30.795,-0.042
30.81,0.183
30.825,0.08
30.84,-0.105
30.855,0.363
30.87,0.078
30.885,0.294
30.9,0.369
30.915,-0.479
30.93,-0.133
30.945,-0.183
30.96,-0.267
30.975,-0.55
30.99,-0.395
31.005,0.132
31.02,-0.071
31.035,-0.585
31.05,-0.824
31.065,-0.204
31.08,0.034
31.095,-0.032
31.11,-0.536
31.125,-0.559
31.14,-0.281
31.155,-0.184
31.17,-0.253
31.185,-0.451
31.2,-0.532
31.215,-0.268
31.23,-0.5
31.245,-0.324
31.26,0.035
31.275,0.096
31.29,0.022
31.305,-0.268
31.32,-0.021
31.335,0.109
31.35,0.295
31.365,-0.03
31.38,-0.527
31.395,-0.38
31.41,-0.292
31.425,-0.177
31.44,-0.135
31.455,0.034
31.47,-0.295
31.485,-0.558
31.5,-0.019
31.515,0.451
31.53,0.315
31.545,-0.35
31.56,-0.519
31.575,-0.32
31.59,0.352
31.605,0.149
31.62,-0.119
31.635,-0.228
31.65,-0.2
31.665,-0.265
31.68,-0.185
31.695,-0.434
31.71,-0.551
31.725,-0.432
31.74,-0.775
31.755,-0.789
31.77,-0.822
31.785,-0.606
31.8,-0.691
31.815,-0.035
31.83,0.184
31.845,-0.367
31.86,-0.213
31.875,-0.192
31.89,-0.058
31.905,-0.402
31.92,0.013
31.935,0.342
31.95,-0.134
31.965,-0.192
31.98,-0.53
31.995,-0.173
32.01,-0.043
32.025,-0.184
32.04,-0.111
32.055,0.214
32.07,-0.176
32.085,0.16
32.1,-0.417
32.115,0.061
32.13,0.415
32.145,0.304
32.16,0.198
32.175,-0.304
32.19,0.332
32.205,0.408
32.22,0.215
32.235,-0.06
32.25,-0.536
32.265,-0.645
32.28,-0.548
32.295,-0.498
32.31,-0.428
32.325,0.207
32.34,-0.238
32.355,-0.531
32.37,-0.052
32.385,0.163
32.4,-0.128
32.415,-0.286
32.43,-0.388
32.445,-0.411
32.46,-0.008
32.475,0.015
32.49,0.185
32.505,-0.279
32.52,-0.275
32.535,-0.022
32.55,-0.025
32.565,-0.355
32.58,-0.55
32.595,-0.386
32.61,-0.238
32.625,-0.447
32.64,-0.103
32.655,0.269
32.67,0.289
32.685,-0.504
32.7,-0.596
32.715,-0.759
32.73,-0.821
32.745,-0.655
32.76,-0.22
32.775,-0.55
32.79,-0.821
32.805,-0.442
32.82,-0.338
32.835,-0.373
32.85,0.145
32.865,0.498
32.88,0.194
32.895,0.136
32.91,0.073
32.925,-0.57
32.94,-0.476
32.955,0.005
32.97,-0.242
32.985,-0.227
33,-0.056
33.015,-0.82
33.03,-0.009
33.045,0.223
33.06,-0.063
33.075,-0.266
33.09,-0.097
33.105,-0.047
33.12,-0.184
33.135,0.409
33.15,-0.247
33.165,-0.544
33.18,-0.113
33.195,-0.476
33.21,-0.821
33.225,-0.543
33.24,-0.249
33.255,-0.34
33.27,-0.344
33.285,0.073
33.3,0.316
33.315,0.258
33.33,0.561
33.345,0.124
33.36,0.075
33.375,-0.18
33.39,-0.509
33.405,-0.246
33.42,-0.22
33.435,0.031
33.45,0.185
33.465,-0.198
33.48,-0.659
33.495,-0.504
33.51,-0.299
33.525,-0.247
33.54,-0.274
33.555,-0.165
33.57,-0.13
33.585,-0.285
33.6,-0.212
33.615,0.136
33.63,0.238
33.645,0.011
33.66,-0.203
33.675,-0.228
33.69,-0.448
33.705,-0.625
33.72,-0.656
33.735,-0.018
33.75,0.06
33.765,-0.53
33.78,-0.528
33.795,-0.126
33.81,-0.101
33.825,-0.293
33.84,0.07
33.855,-0.012
33.87,-0.17
33.885,-0.495
33.9,-0.636
33.915,-0.566
33.93,-0.388
33.945,-0.353
33.96,-0.826
33.975,-0.759
33.99,-0.337
34.005,-0.098
34.02,-0.688
34.035,-0.555
34.05,-0.484
34.065,-0.776
34.08,-0.498
34.095,-0.826
34.11,-0.409
34.125,-0.315
34.14,-0.549
34.155,-0.794
34.17,-0.16
34.185,0.361
34.2,0.069
34.215,-0.253
34.23,-0.452
34.245,-0.643
34.26,-0.181
34.275,0.177
34.29,0.254
34.305,-0.665
34.32,-0.486
34.335,-0.828
34.35,-0.76
34.365,-0.259
34.38,-0.509
34.395,-0.696
34.41,0.029
34.425,-0.388
34.44,-0.764
34.455,-0.421
34.47,-0.252
34.485,0.004
34.5,-0.007
34.515,-0.236
34.53,-0.543
34.545,-0.414
34.56,0.313
34.575,0.113
34.59,0.076
34.605,0.165
34.62,-0.338
34.635,-0.07
34.65,0.128
34.665,0.146
34.68,-0.014
34.695,-0.549
34.71,-0.746
34.725,-0.202
34.74,-0.01
34.755,-0.118
34.77,0.068
34.785,0.188
34.8,0.439
34.815,0.204
34.83,0.082
34.845,0.18
34.86,0.264
34.875,0.404
34.89,0.321
34.905,0.121
34.92,0.382
34.935,0.22
34.95,0.348
34.965,0.64
34.98,1.036
34.995,1.237
35.01,1.403
35.025,1.133
35.04,1.042
35.055,1.169
35.07,1.347
35.085,1.99
35.1,2.443
35.115,2.587
35.13,2.796
35.145,3.496
35.16,3.633
35.175,3.884
35.19,4.133
35.205,4.809
35.22,4.772
35.235,4.071
35.25,4.7
35.265,5.878
35.28,6.365
35.295,5.901
35.31,6.29
35.325,6.593
35.34,7.391
35.355,7.522
35.37,7.554
35.385,7.866
35.4,8.098
35.415,7.95
35.43,7.828
35.445,8.58
35.46,8.785
35.475,8.664
35.49,8.487
35.505,8.476
35.52,8.381
35.535,8.447
35.55,8.138
35.565,8.372
35.58,8.093
35.595,7.837
35.61,8.068
35.625,8.206
35.64,7.99
35.655,8.273
35.67,8.028
35.685,7.293
35.7,7.279
35.715,6.518
35.73,6.15
35.745,5.772
35.76,5.163
35.775,4.759
35.79,4.692
35.805,4.49
35.82,4.469
35.835,4.003
35.85,3.749
35.865,2.948
35.88,3.307
35.895,3.197
35.91,3.23
35.925,3.114
35.94,2.867
35.955,2.412
35.97,2.228
35.985,2.015
36,1.618
36.015,1.01
36.03,0.732
36.045,1.104
36.06,0.983
36.075,0.651
36.09,0.461
36.105,0.531
36.12,0.743
36.135,0.581
36.15,-0.11
36.165,-0.641
36.18,0.388
36.195,0.293
36.21,0.453
36.225,0.451
36.24,0.285
36.255,-0.635
36.27,-0.741
36.285,0.264
36.3,0.324
36.315,-0.182
36.33,-0.344
36.345,0.019
36.36,-0.328
36.375,-0.344
36.39,-0.544
36.405,-0.31
36.42,-0.795
36.435,-0.587
36.45,-0.61
36.465,-0.201
36.48,0.499
36.495,0.366
36.51,0.134
36.525,-0.114
36.54,-0.5
36.555,-0.184
36.57,-0.181
36.585,-0.1
36.6,-0.086
36.615,-0.598
36.63,-0.826
36.645,-0.202
36.66,-0.269
36.675,-0.677
36.69,-0.436
36.705,-0.257
36.72,-0.163
36.735,-0.155
36.75,-0.037
36.765,-0.217
36.78,-0.205
36.795,-0.219
36.81,-0.231
36.825,-0.467
36.84,-0.394
36.855,-0.231
36.87,0.291
36.885,0.223
36.9,0.541
36.915,0.224
36.93,-0.124
36.945,-0.009
36.96,-0.098
36.975,-0.51
36.99,-0.362
37.005,0.284
37.02,0.143
37.035,-0.004
37.05,-0.146
37.065,-0.233
37.08,-0.049
37.095,0.379
37.11,0.837
37.125,0.778
37.14,-0.055
37.155,0.026
37.17,0.346
37.185,0.343
37.2,-0.254
37.215,0.114
37.23,0.024
37.245,0.188
37.26,0.543
37.275,0.223
37.29,-0.085
37.305,-0.301
37.32,-0.092
37.335,-0.174
37.35,-0.539
37.365,-0.451
37.38,-0.092
37.395,0.245
37.41,-0.019
37.425,0.08
37.44,-0.143
37.455,-0.588
37.47,-0.437
37.485,-0.277
37.5,-0.265
37.515,0.067
37.53,0.235
37.545,-0.135
37.56,-0.179
37.575,0.07
37.59,0.005
37.605,-0.19
37.62,0.257
37.635,-0.078
37.65,-0.179
37.665,-0.592
37.68,-0.817
37.695,-0.212
37.71,-0.321
37.725,-0.816
37.74,-0.31
37.755,-0.217
37.77,-0.207
37.785,-0.079
37.8,0.058
37.815,0.058
37.83,-0.297
37.845,-0.376
37.86,-0.073
37.875,-0.321
37.89,-0.425
37.905,-0.473
37.92,-0.3
37.935,-0.094
37.95,0.105
37.965,0.337
37.98,-0.692
37.995,-0.513
38.01,-0.027
38.025,0.135
38.04,-0.482
38.055,-0.648
38.07,0.29
38.085,0.383
38.1,0.034
38.115,-0.231
38.13,0.115
38.145,-0.402
38.16,-0.407
38.175,-0.118
38.19,-0.461
38.205,-0.68
38.22,-0.642
38.235,-0.193
38.25,-0.294
38.265,-0.249
38.28,-0.437
38.295,-0.6
38.31,-0.66
38.325,-0.178
38.34,-0.228
38.355,-0.344
38.37,-0.301
38.385,-0.421
38.4,-0.281
38.415,-0.208
38.43,0.01
38.445,0.354
38.46,-0.136
38.475,-0.653
38.49,-0.49
38.505,-0.431
38.52,-0.103
38.535,-0.375
38.55,-0.582
38.565,-0.601
38.58,-0.516
38.595,-0.328
38.61,-0.285
38.625,-0.39
38.64,0.149
38.655,0.443
38.67,-0.057
38.685,-0.817
38.7,-0.066
38.715,0.081
38.73,0.325
38.745,-0.01
38.76,0.286
38.775,0.224
38.79,-0.606
38.805,-0.77
38.82,-0.742
38.835,-0.61
38.85,-0.639
38.865,-0.126
38.88,0.2
38.895,-0.008
38.91,-0.134
38.925,0.014
38.94,-0.14
38.955,-0.415
38.97,-0.127
38.985,-0.556
39,-0.706
39.015,-0.609
39.03,-0.482
39.045,-0.134
39.06,0.018
39.075,-0.513
39.09,-0.609
39.105,-0.368
39.12,0.029
39.135,-0.074
39.15,-0.226
39.165,-0.188
39.18,-0.192
39.195,-0.52
39.21,-0.603
39.225,0.058
39.24,0.144
39.255,0.113
39.27,0.087
39.285,-0.099
39.3,-0.041
39.315,-0.471
39.33,-0.176
39.345,-0.37
39.36,-0.813
39.375,-0.677
39.39,0.219
39.405,0.499
39.42,0.619
39.435,0.351
39.45,-0.52
39.465,-0.617
39.48,-0.31
39.495,-0.281
39.51,-0.034
39.525,0.085
39.54,-0.065
39.555,-0.14
39.57,0.198
39.585,0.528
39.6,0.327
39.615,-0.028
39.63,-0.213
39.645,-0.623
39.66,-0.581
39.675,-0.27
39.69,-0.218
39.705,-0.151
39.72,-0.132
39.735,-0.019
39.75,-0.122
39.765,0.297
39.78,-0.05
39.795,0.011
39.81,0.246
39.825,-0.196
39.84,-0.677
39.855,-0.341
39.87,0.45
39.885,0.499
39.9,-0.12
39.915,-0.812
39.93,-0.753
39.945,-0.126
39.96,0.053
39.975,-0.283
39.99,0.129
40.005,0.317
40.02,-0.345
40.035,-0.344
40.05,0.01
40.065,-0.22
40.08,-0.633
40.095,-0.075
40.11,0.11
40.125,-0.192
40.14,-0.214
40.155,-0.419
40.17,0.081
40.185,0.53
40.2,0.345
40.215,0.276
40.23,0.101
40.245,-0.161
40.26,-0.505
40.275,-0.813
40.29,-0.523
40.305,-0.507
40.32,-0.53
40.335,-0.314
40.35,-0.021
40.365,0.239
40.38,0.125
40.395,-0.358
40.41,-0.205
40.425,0.074
40.44,-0.101
40.455,-0.055
40.47,-0.644
40.485,-0.464
40.5,-0.28
40.515,-0.332
40.53,-0.5
40.545,-0.539
40.56,0.036
40.575,-0.041
40.59,-0.334
40.605,-0.266
40.62,-0.108
40.635,-0.606
40.65,-0.092
40.665,-0.046
40.68,-0.177
40.695,-0.16
40.71,0.343
40.725,0.421
40.74,-0.312
40.755,-0.426
40.77,0.353
40.785,0.379
40.8,0.309
40.815,-0.2
40.83,-0.284
40.845,-0.219
40.86,-0.244
40.875,-0.304
40.89,-0.17
40.905,-0.798
40.92,-0.173
40.935,-0.101
40.95,-0.125
40.965,-0.063
40.98,-0.259
40.995,-0.813
41.01,-0.564
41.025,0.148
41.04,-0.245
41.055,-0.278
41.07,0.063
41.085,-0.356
41.1,-0.283
41.115,-0.413
41.13,0.233
41.145,0.657
41.16,0.653
41.175,0.092
41.19,-0.165
41.205,-0.391
41.22,-0.099
41.235,-0.141
41.25,-0.174
41.265,-0.396
41.28,-0.379
41.295,0.134
41.31,-0.098
41.325,-0.609
41.34,-0.074
41.355,0.252
41.37,0.089
41.385,0.081
41.4,-0.091
41.415,-0.223
41.43,-0.171
41.445,-0.229
41.46,-0.758
41.475,-0.294
41.49,0.126
41.505,0.172
41.52,0.162
41.535,0.256
41.55,-0.383
41.565,-0.3
41.58,-0.043
41.595,-0.009
41.61,-0.273
41.625,-0.622
41.64,-0.445
41.655,-0.45
41.67,-0.344
41.685,-0.207
41.7,-0.459
41.715,-0.29
41.73,-0.22
41.745,-0.371
41.76,-0.024
41.775,-0.697
41.79,-0.812
41.805,-0.129
41.82,-0.219
41.835,-0.086
41.85,-0.289
41.865,-0.403
41.88,-0.066
41.895,-0.171
41.91,-0.162
41.925,-0.065
41.94,0.048
41.955,0.188
41.97,-0.171
41.985,0.045
42,0.269
42.015,0.127
42.03,0.06
42.045,0.166
42.06,0.025
42.075,-0.349
42.09,-0.101
42.105,-0.275
42.12,-0.14
42.135,-0.187
42.15,-0.519
42.165,-0.438
42.18,0.015
42.195,0.253
42.21,0.394
42.225,0.113
42.24,0.212
42.255,-0.045
42.27,-0.136
42.285,-0.002
42.3,0.167
42.315,-0.058
42.33,-0.336
42.345,-0.406
42.36,-0.388
42.375,-0.164
42.39,-0.173
42.405,-0.418
42.42,-0.044
42.435,0.059
42.45,-0.301
42.465,-0.58
42.48,-0.189
42.495,0.012
42.51,-0.317
42.525,0.048
42.54,-0.051
42.555,-0.3
42.57,-0.127
42.585,-0.489
42.6,-0.25
42.615,0.367
42.63,0.057
42.645,-0.71
42.66,-0.128
42.675,0.09
42.69,0.082
42.705,0.338
42.72,0.34
42.735,0.372
42.75,0.063
42.765,0.594
42.78,0.734
42.795,0.643
42.81,0.207
42.825,0.47
42.84,0.464
42.855,0.32
42.87,0.064
42.885,0.811
42.9,0.597
42.915,0.22
42.93,0.65
42.945,1.115
42.96,1.241
42.975,0.678
42.99,0.695
43.005,1.001
43.02,1.316
43.035,1.458
43.05,1.583
43.065,1.637
43.08,1.307
43.095,0.957
43.11,0.92
43.125,0.976
43.14,1.596
43.155,1.226
43.17,1.031
43.185,1.971
43.2,1.949
43.215,1.879
43.23,1.175
43.245,1.125
43.26,1.098
43.275,1.093
43.29,1.517
43.305,0.998
43.32,0.569
43.335,1.083
43.35,1.413
43.365,1.194
43.38,1.505
43.395,1.184
43.41,0.635
43.425,0.535
43.44,0.503
43.455,0.767
43.47,0.608
43.485,0.088
43.5,-0.099
43.515,0.202
43.53,0.866
43.545,0.472
43.56,0.504
43.575,0.148
43.59,-0.228
43.605,0.274
43.62,0.654
43.635,0.515
43.65,-0.072
43.665,-0.042
43.68,-0.422
43.695,-0.144
43.71,0.375
43.725,0.292
43.74,0.317
43.755,-0.059
43.77,0.054
43.785,-0.409
43.8,-0.251
43.815,-0.452
43.83,-0.546
43.845,-0.207
43.86,-0.603
43.875,0.033
43.89,-0.105
43.905,-0.093
43.92,0.18
43.935,-0.33
43.95,-0.811
43.965,-0.61
43.98,-0.091
43.995,0.196
44.01,-0.213
44.025,-0.16
44.04,0.005
44.055,0.235
44.07,-0.279
44.085,-0.576
44.1,0.142
44.115,0.106
44.13,-0.286
44.145,-0.076
44.16,0.202
44.175,-0.179
44.19,-0.167
44.205,0.149
44.22,-0.282
44.235,0.083
44.25,0.051
44.265,-0.031
44.28,0.005
44.295,-0.056
44.31,0.009
44.325,-0.127
44.34,-0.627
44.355,-0.473
44.37,0.522
44.385,0.751
44.4,-0.029
44.415,-0.162
44.43,0.407
44.445,0.419
44.46,0.221
44.475,0.101
44.49,-0.291
44.505,-0.585
44.52,-0.579
44.535,0.013
44.55,-0.05
44.565,-0.065
44.58,0.254
44.595,0.24
44.61,0.378
44.625,-0.057
44.64,0.035
44.655,0.326
44.67,-0.019
44.685,-0.196
44.7,-0.658
44.715,-0.652
44.73,-0.807
44.745,-0.546
44.76,-0.271
44.775,-0.054
44.79,-0.107
44.805,0.286
44.82,0.493
44.835,0.183
44.85,0.539
44.865,0.156
44.88,-0.154
44.895,-0.194
44.91,0.358
44.925,-0.048
44.94,-0.126
44.955,0.145
44.97,0.073
44.985,-0.757
45,-0.29
45.015,0.063
45.03,-0.222
45.045,-0.458
45.06,-0.131
45.075,0.112
45.09,0.093
45.105,-0.31
45.12,-0.403
45.135,-0.424
45.15,-0.537
45.165,-0.226
45.18,-0.345
45.195,-0.341
45.21,-0.26
45.225,-0.299
45.24,-0.303
45.255,-0.356
45.27,0.003
45.285,0.006
45.3,0.054
45.315,-0.34
45.33,-0.241
45.345,0.082
45.36,-0.006
45.375,-0.025
45.39,0.213
45.405,-0.034
45.42,-0.668
45.435,-0.42
45.45,-0.335
45.465,-0.011
45.48,0.235
45.495,-0.266
45.51,-0.598
45.525,-0.215
45.54,-0.483
45.555,-0.301
45.57,-0.122
45.585,0.16
45.6,0.216
45.615,-0.133
45.63,-0.236
45.645,-0.164
45.66,0.057
45.675,-0.009
45.69,-0.315
45.705,-0.468
45.72,-0.631
45.735,-0.806
45.75,-0.48
45.765,0.078
45.78,0.054
45.795,-0.227
45.81,-0.104
45.825,-0.23
45.84,-0.393
45.855,-0.319
45.87,-0.104
45.885,0.047
45.9,-0.213
45.915,0.05
45.93,0.317
45.945,0.045
45.96,-0.395
45.975,-0.594
45.99,-0.301
46.005,-0.33
46.02,-0.272
46.035,-0.421
46.05,-0.65
46.065,-0.058
46.08,-0.159
46.095,-0.39
46.11,0.261
46.125,0.554
46.14,-0.101
46.155,-0.643
46.17,-0.494
46.185,-0.448
46.2,0.008
46.215,0.001
46.23,-0.166
46.245,-0.085
46.26,-0.074
46.275,0
46.29,-0.234
46.305,-0.806
46.32,-0.295
46.335,0.137
46.35,-0.1
46.365,-0.194
46.38,0.022
46.395,-0.363
46.41,-0.138
46.425,0.198
46.44,0.229
46.455,0.034
46.47,0.067
46.485,0.081
46.5,-0.014
46.515,0.195
46.53,0.071
46.545,-0.234
46.56,0.187
46.575,0.363
46.59,0.044
46.605,-0.084
46.62,-0.344
46.635,-0.306
46.65,-0.195
46.665,-0.096
46.68,-0.285
46.695,-0.106
46.71,-0.248
46.725,-0.336
46.74,0.08
46.755,0.052
46.77,-0.091
46.785,0.116
46.8,0.279
46.815,0.231
46.83,-0.146
46.845,-0.267
46.86,-0.224
46.875,0.119
46.89,-0.363
46.905,-0.401
46.92,0.15
46.935,0
46.95,-0.141
46.965,0.381
46.98,0.771
46.995,0.44
47.01,0.32
47.025,0.121
47.04,-0.145
47.055,0.231
47.07,-0.028
47.085,0.195
47.1,0.33
47.115,0.43
47.13,0.239
47.145,0.159
47.16,0.179
47.175,0.145
47.19,0.339
47.205,0.543
47.22,0.091
47.235,-0.675
47.25,-0.802
47.265,-0.173
47.28,-0.25
47.295,-0.182
47.31,-0.222
47.325,-0.141
47.34,0.193
47.355,0.253
47.37,0.171
47.385,-0.17
47.4,-0.012
47.415,0.274
47.43,0.361
47.445,0.102
47.46,-0.08
47.475,0.084
47.49,0.552
47.505,0.6
47.52,0.424
47.535,-0.211
47.55,-0.098
47.565,-0.18
47.58,0.118
47.595,0.295
47.61,0.35
47.625,-0.174
47.64,-0.044
47.655,0.111
47.67,-0.082
47.685,0.266
47.7,0.108
47.715,-0.338
47.73,-0.302
47.745,0.225
47.76,0.243
47.775,-0.023
47.79,0.272
47.805,0.479
47.82,0.414
47.835,0.293
47.85,0.429
47.865,-0.33
47.88,-0.428
47.895,0.082
47.91,0.252
47.925,-0.042
47.94,-0.318
47.955,0.086
47.97,0.114
47.985,0.09
48,-0.091
48.015,-0.348
48.03,-0.561
48.045,-0.203
48.06,-0.066
48.075,0.459
48.09,0.063
48.105,0.098
48.12,0.034
48.135,-0.185
48.15,0.056
48.165,-0.015
48.18,-0.377
48.195,-0.035
48.21,0.35
48.225,0.012
48.24,0.038
48.255,0.716
48.27,0.49
48.285,0.162
48.3,0.465
48.315,-0.279
48.33,-0.074
48.345,0.621
48.36,0.372
48.375,0.11
48.39,0.238
48.405,0.139
48.42,0.438
48.435,0.187
48.45,-0.253
48.465,-0.401
48.48,-0.705
48.495,-0.366
48.51,0.288
48.525,0.035
48.54,-0.199
48.555,-0.468
48.57,-0.801
48.585,0.002
48.6,0.488
48.615,0.19
48.63,0.188
48.645,0.038
48.66,0.011
48.675,0.203
48.69,-0.088
48.705,0.252
48.72,0.442
48.735,0.296
48.75,0.04
48.765,-0.224
48.78,0.357
48.795,0.754
48.81,0.183
48.825,0.16
48.84,-0.254
48.855,-0.346
48.87,-0.418
48.885,-0.375
48.9,-0.191
48.915,-0.177
48.93,-0.244
48.945,-0.209
48.96,-0.366
48.975,-0.244
48.99,-0.042
49.005,0.414
49.02,-0.065
49.035,-0.367
49.05,-0.467
49.065,-0.27
49.08,0.213
49.095,0.07
49.11,-0.271
49.125,0.081
49.14,-0.28
49.155,-0.154
49.17,-0.312
49.185,-0.499
49.2,-0.303
49.215,0.141
49.23,0.189
49.245,-0.589
49.26,0.026
49.275,0.576
49.29,0.314
49.305,0.438
49.32,0.277
49.335,-0.013
49.35,-0.102
49.365,-0.176
49.38,-0.672
49.395,-0.321
49.41,-0.141
49.425,0.033
49.44,0.281
49.455,0.147
49.47,-0.179
49.485,-0.363
49.5,-0.281
49.515,-0.359
49.53,-0.748
49.545,-0.427
49.56,-0.258
49.575,-0.217
49.59,-0.242
49.605,-0.271
49.62,-0.155
49.635,-0.405
49.65,-0.126
49.665,0.147
49.68,-0.281
49.695,-0.233
49.71,-0.394
49.725,-0.367
49.74,-0.013
49.755,-0.031
49.77,-0.511
49.785,-0.806
49.8,-0.605
49.815,-0.496
49.83,-0.496
49.845,-0.588
49.86,-0.711
49.875,-0.103
49.89,-0.276
49.905,-0.513
49.92,-0.378
49.935,0.106
49.95,-0.24
49.965,-0.481
49.98,-0.138
49.995,-0.631
50.01,-0.586
50.025,-0.568
50.04,-0.639
50.055,-0.63
50.07,0.091
50.085,0.121
50.1,-0.202
50.115,-0.111
50.13,0.055
50.145,-0.153
50.16,-0.179
50.175,-0.326
50.19,-0.514
50.205,-0.295
50.22,0.086
50.235,-0.022
50.25,-0.136
50.265,-0.239
50.28,-0.415
50.295,-0.236
50.31,-0.382
50.325,-0.374
50.34,-0.138
50.355,-0.613
50.37,-0.337
50.385,-0.153
50.4,0.062
50.415,0.423
50.43,0.246
50.445,0.055
50.46,-0.225
50.475,-0.225
50.49,-0.296
50.505,-0.283
50.52,-0.053
50.535,0.323
50.55,0.315
50.565,-0.285
50.58,-0.483
50.595,0.274
50.61,0.223
50.625,0.22
50.64,-0.06
50.655,-0.27
50.67,0.138
50.685,0.569
50.7,-0.448
50.715,-0.803
50.73,-0.454
50.745,-0.467
50.76,-0.179
50.775,-0.166
50.79,-0.313
50.805,-0.644
50.82,-0.264
50.835,0.247
50.85,-0.113
50.865,-0.412
50.88,-0.242
50.895,-0.114
50.91,0.017
50.925,-0.19
50.94,-0.504
50.955,-0.434
50.97,-0.327
50.985,-0.084
51,0.471
51.015,0.447
51.03,-0.218
51.045,-0.554
51.06,-0.107
51.075,-0.18
51.09,-0.371
51.105,-0.296
51.12,-0.477
51.135,-0.375
51.15,0.105
51.165,-0.197
51.18,-0.432
51.195,-0.366
51.21,-0.325
51.225,-0.679
51.24,-0.342
51.255,-0.15
51.27,-0.266
51.285,-0.126
51.3,-0.538
51.315,-0.568
51.33,-0.365
51.345,-0.047
51.36,0.149
51.375,0.293
51.39,0.135
51.405,-0.089
51.42,-0.266
51.435,-0.337
51.45,-0.227
51.465,-0.381
51.48,-0.558
51.495,-0.255
51.51,-0.079
51.525,-0.63
51.54,-0.534
51.555,-0.56
51.57,-0.612
51.585,-0.172
51.6,-0.539
51.615,-0.342
51.63,-0.295
51.645,-0.316
51.66,-0.531
51.675,-0.634
51.69,-0.312
51.705,-0.402
51.72,-0.733
51.735,-0.525
51.75,-0.53
51.765,-0.439
51.78,-0.263
51.795,-0.095
51.81,-0.432
51.825,-0.575
51.84,-0.305
51.855,-0.778
51.87,-0.804
51.885,-0.399
51.9,0.056
51.915,-0.646
51.93,-0.565
51.945,-0.585
51.96,-0.133
51.975,0.056
51.99,-0.238
52.005,-0.462
52.02,-0.069
52.035,0.033
52.05,-0.2
52.065,0.13
52.08,0.423
52.095,0.143
52.11,-0.228
52.125,-0.402
52.14,-0.002
52.155,-0.227
52.17,-0.121
52.185,0.141
52.2,-0.017
52.215,-0.292
52.23,-0.59
52.245,-0.52
52.26,-0.602
52.275,-0.411
52.29,-0.33
52.305,-0.177
52.32,-0.235
52.335,-0.3
52.35,-0.371
52.365,-0.459
52.38,-0.172
52.395,0.027
52.41,-0.38
52.425,-0.569
52.44,-0.805
52.455,-0.381
52.47,0.026
52.485,0.103
52.5,-0.272
52.515,-0.46
52.53,-0.505
52.545,-0.387
52.56,-0.11
52.575,-0.29
52.59,-0.14
52.605,-0.368
52.62,-0.27
52.635,-0.467
52.65,0.17
52.665,0.483
52.68,-0.125
52.695,0.172
52.71,-0.207
52.725,-0.218
52.74,-0.244
52.755,-0.07
52.77,-0.241
52.785,-0.483
52.8,-0.65
52.815,-0.384
52.83,0.151
52.845,0.243
52.86,0.058
52.875,-0.353
52.89,-0.478
52.905,-0.274
52.92,-0.358
52.935,-0.547
52.95,-0.234
52.965,-0.21
52.98,-0.807
52.995,-0.432
53.01,0.064
53.025,0.144
53.04,0.195
53.055,-0.086
53.07,-0.346
53.085,-0.154
53.1,0.075
53.115,-0.12
53.13,0.032
53.145,-0.308
53.16,-0.026
53.175,0.27
53.19,0.03
53.205,0.102
53.22,0.357
53.235,0.282
53.25,0.003
53.265,0.068
53.28,-0.16
53.295,-0.194
53.31,-0.053
53.325,0.622
53.34,0.551
53.355,0.304
53.37,0.499
53.385,0.688
53.4,0.185
53.415,-0.016
53.43,0.267
53.445,0.397
53.46,0.376
53.475,0.419
53.49,0.613
53.505,0.354
53.52,-0.019
53.535,0.146
53.55,0.169
53.565,0.293
53.58,0.412
53.595,0.655
53.61,0.691
53.625,0.396
53.64,0.182
53.655,0.164
53.67,0.556
53.685,0.117
53.7,0.167
53.715,0.669
53.73,0.299
53.745,-0.017
53.76,-0.212
53.775,-0.287
53.79,-0.149
53.805,-0.44
53.82,-0.184
53.835,0.022
53.85,0.164
53.865,0.501
53.88,0.357
53.895,0.172
53.91,-0.091
53.925,0.434
53.94,0.375
53.955,-0.101
53.97,-0.367
53.985,-0.345
54,0.279
54.015,-0.379
54.03,-0.556
54.045,-0.325
54.06,-0.331
54.075,-0.373
54.09,-0.396
54.105,-0.492
54.12,-0.149
54.135,-0.426
54.15,-0.149
54.165,-0.326
54.18,0.008
54.195,-0.244
54.21,-0.334
54.225,-0.284
54.24,0.033
54.255,-0.213
54.27,-0.095
54.285,0.192
54.3,-0.073
54.315,-0.548
54.33,0.285
54.345,0.351
54.36,0.307
54.375,-0.092
54.39,-0.571
54.405,-0.597
54.42,-0.357
54.435,-0.479
54.45,-0.804
54.465,-0.012
54.48,0.069
54.495,0.071
54.51,0.175
54.525,-0.279
54.54,-0.027
54.555,-0.404
54.57,-0.681
54.585,-0.639
54.6,-0.153
54.615,0.013
54.63,-0.064
54.645,-0.162
54.66,-0.265
54.675,-0.274
54.69,-0.701
54.705,-0.618
54.72,0.105
54.735,0.329
54.75,0.237
54.765,-0.186
54.78,-0.714
54.795,-0.624
54.81,-0.094
54.825,-0.284
54.84,0.105
54.855,-0.414
54.87,-0.468
54.885,-0.476
54.9,-0.523
54.915,-0.293
54.93,0.036
54.945,-0.316
54.96,-0.159
54.975,0.07
54.99,0.135
55.005,-0.176
55.02,-0.085
55.035,-0.27
55.05,-0.334
55.065,-0.524
55.08,-0.118
55.095,0.104
55.11,-0.302
55.125,-0.471
55.14,-0.483
55.155,-0.631
55.17,0.006
55.185,0.12
55.2,0.242
55.215,0.041
55.23,0.799
55.245,0.225
55.26,-0.723
55.275,-0.8
55.29,-0.416
55.305,-0.402
55.32,-0.543
55.335,-0.494
55.35,-0.252
55.365,0.06
55.38,0.138
55.395,-0.074
55.41,-0.175
55.425,-0.003
55.44,-0.084
55.455,-0.201
55.47,-0.186
55.485,-0.21
55.5,-0.176
55.515,-0.001
55.53,0.037
55.545,-0.147
55.56,-0.013
55.575,0.346
55.59,0.503
55.605,0.084
55.62,0.024
55.635,0.211
55.65,-0.076
55.665,0.133
55.68,0.497
55.695,0.38
55.71,-0.192
55.725,-0.798
55.74,-0.228
55.755,0.135
55.77,-0.137
55.785,-0.243
55.8,0.078
55.815,-0.223
55.83,-0.027
55.845,0.237
55.86,0.041
55.875,0.065
55.89,0.106
55.905,-0.345
55.92,-0.301
55.935,-0.146
55.95,0.229
55.965,-0.193
55.98,-0.09
55.995,0.198
56.01,-0.045
56.025,0.119
56.04,-0.064
56.055,0.325
56.07,0.288
56.085,-0.284
56.1,-0.612
56.115,-0.442
56.13,0.025
56.145,0.457
56.16,0.3
56.175,0.302
56.19,-0.132
56.205,-0.344
56.22,-0.215
56.235,0.398
56.25,0.18
56.265,0.188
56.28,-0.066
56.295,-0.089
56.31,0.133
56.325,0.15
56.34,0.041
56.355,-0.405
56.37,-0.223
56.385,0.113
56.4,0.307
56.415,-0.099
56.43,0.053
56.445,-0.246
56.46,-0.19
56.475,0.367
56.49,-0.199
56.505,-0.439
56.52,0.136
56.535,0.138
56.55,-0.563
56.565,-0.214
56.58,0.521
56.595,0.38
56.61,0.372
56.625,0.876
56.64,0.749
56.655,0.355
56.67,0.235
56.685,0.701
56.7,0.849
56.715,1.055
56.73,1.932
56.745,1.756
56.76,1.21
56.775,0.954
56.79,1.167
56.805,1.011
56.82,1.241
56.835,1.979
56.85,2.166
56.865,1.596
56.88,1.804
56.895,1.951
56.91,2.272
56.925,2.161
56.94,1.847
56.955,1.688
56.97,2.202
56.985,2.426
57,2.727
57.015,2.607
57.03,2.204
57.045,2.243
57.06,2.882
57.075,2.252
57.09,2.825
57.105,2.691
57.12,2.047
57.135,2.125
57.15,1.866
57.165,1.842
57.18,2.228
57.195,2.142
57.21,2.034
57.225,2.314
57.24,1.823
57.255,1.691
57.27,1.77
57.285,2.031
57.3,2.416
57.315,1.502
57.33,1.258
57.345,1.481
57.36,1.467
57.375,1.622
57.39,1.789
57.405,1.583
57.42,1.409
57.435,1.463
57.45,1.799
57.465,1.611
57.48,0.963
57.495,1.001
57.51,0.843
57.525,0.668
57.54,1.191
57.555,1.124
57.57,0.756
57.585,0.596
57.6,0.406
57.615,0.834
57.63,0.8
57.645,0.804
57.66,0.633
57.675,0.097
57.69,0.018
57.705,0.452
57.72,0.32
57.735,0.394
57.75,0.236
57.765,0.122
57.78,0.236
57.795,0.297
57.81,0.291
57.825,0.233
57.84,0.259
57.855,0.052
57.87,-0.063
57.885,0.083
57.9,0.118
57.915,-0.47
57.93,-0.8
57.945,-0.443
57.96,-0.302
57.975,-0.11
57.99,0.194
58.005,0.154
58.02,0.134
58.035,-0.47
58.05,0.199
58.065,0.298
58.08,-0.158
58.095,-0.791
58.11,-0.198
58.125,0.003
58.14,-0.442
58.155,-0.03
58.17,0.004
58.185,-0.168
58.2,-0.016
58.215,0.357
58.23,0.183
58.245,-0.068
58.26,-0.13
58.275,-0.722
58.29,-0.483
58.305,-0.297
58.32,-0.246
58.335,-0.057
58.35,0.015
58.365,-0.216
58.38,-0.414
58.395,-0.446
58.41,-0.068
58.425,-0.295
58.44,-0.303
58.455,-0.365
58.47,-0.71
58.485,-0.171
58.5,-0.317
58.515,-0.8
58.53,-0.333
58.545,-0.226
58.56,-0.052
58.575,-0.033
58.59,-0.301
58.605,-0.182
58.62,0.134
58.635,-0.356
58.65,-0.518
58.665,-0.194
58.68,0.056
58.695,-0.201
58.71,-0.518
58.725,-0.41
58.74,-0.393
58.755,-0.2
58.77,-0.148
58.785,-0.055
58.8,0.024
58.815,-0.413
58.83,-0.09
58.845,0.157
58.86,-0.288
58.875,-0.053
58.89,0.376
58.905,0.394
58.92,0.384
58.935,-0.318
58.95,-0.452
58.965,0.21
58.98,0.039
58.995,-0.357
59.01,-0.307
59.025,-0.505
59.04,-0.667
59.055,-0.678
59.07,-0.338
59.085,-0.186
59.1,-0.547
59.115,-0.298
59.13,0.043
59.145,0.391
59.16,0.279
59.175,0.204
59.19,0.063
59.205,-0.197
59.22,-0.164
59.235,-0.262
59.25,-0.489
59.265,-0.414
59.28,-0.035
59.295,0.204
59.31,0.111
59.325,-0.075
59.34,-0.65
59.355,-0.456
59.37,-0.374
59.385,-0.406
59.4,-0.32
59.415,-0.245
59.43,0.123
59.445,-0.297
59.46,-0.8
59.475,-0.464
59.49,-0.234
59.505,-0.327
59.52,-0.196
59.535,-0.364
59.55,-0.059
59.565,-0.238
59.58,-0.528
59.595,0.027
59.61,-0.057
59.625,-0.573
59.64,-0.556
59.655,-0.107
59.67,0.519
59.685,0.296
59.7,-0.32
59.715,-0.35
59.73,-0.182
59.745,0.119
59.76,-0.335
59.775,-0.432
59.79,-0.676
59.805,-0.376
59.82,-0.347
59.835,-0.216
59.85,-0.079
59.865,0
59.88,-0.421
59.895,-0.728
59.91,-0.336
59.925,-0.311
59.94,-0.223
59.955,-0.27
59.97,-0.454
59.985,-0.693
60,-0.186
60.015,-0.103
60.03,-0.001
60.045,-0.281
60.06,-0.464
60.075,0.041
60.09,-0.31
60.105,0.156
60.12,0.186
60.135,-0.435
60.15,-0.502
60.165,-0.422
60.18,-0.614
60.195,-0.667
60.21,-0.69
60.225,-0.407
60.24,-0.455
60.255,-0.394
60.27,-0.435
60.285,-0.802
60.3,-0.506
60.315,-0.54
60.33,-0.547
60.345,-0.241
60.36,0.112
60.375,-0.45
60.39,-0.802
60.405,-0.218
60.42,-0.374
60.435,-0.739
60.45,-0.38
60.465,-0.321
60.48,-0.218
60.495,-0.335
60.51,-0.575
60.525,-0.264
60.54,-0.439
60.555,-0.073
60.57,0.071
60.585,-0.407
60.6,-0.523
60.615,-0.325
60.63,-0.485
60.645,-0.34
60.66,-0.255
60.675,-0.262
60.69,-0.006
60.705,0.026
60.72,-0.53
60.735,-0.428
60.75,-0.46
60.765,-0.641
60.78,-0.398
60.795,-0.176
60.81,-0.439
60.825,-0.377
60.84,0.003
60.855,0.086
60.87,-0.013
60.885,0.086
60.9,-0.447
60.915,-0.239
60.93,0.037
60.945,-0.03
60.96,-0.36
60.975,-0.034
60.99,-0.291
61.005,-0.506
61.02,-0.438
61.035,-0.514
61.05,-0.291
61.065,-0.403
61.08,-0.608
61.095,-0.254
61.11,0.048
61.125,-0.386
61.14,-0.145
61.155,0.152
61.17,0.256
61.185,-0.061
61.2,-0.293
61.215,-0.196
61.23,-0.802
61.245,-0.802
61.26,-0.188
61.275,-0.257
61.29,-0.199
61.305,-0.066
61.32,0.002
61.335,-0.409
61.35,-0.529
61.365,-0.451
61.38,-0.571
61.395,-0.693
61.41,-0.341
61.425,0.482
61.44,0.076
61.455,0.031
61.47,-0.135
61.485,-0.625
61.5,-0.551
61.515,-0.19
61.53,-0.277
61.545,-0.161
61.56,-0.043
61.575,-0.183
61.59,-0.049
61.605,-0.231
61.62,-0.046
61.635,-0.286
61.65,0.096
61.665,-0.193
61.68,-0.742
61.695,-0.734
61.71,-0.801
61.725,-0.248
61.74,-0.227
61.755,0.33
61.77,0.061
61.785,-0.21
61.8,0.024
61.815,0.129
61.83,0.333
61.845,0.306
61.86,0.185
61.875,-0.293
61.89,-0.463
61.905,0.27
61.92,-0.129
61.935,-0.477
61.95,-0.299
61.965,-0.02
61.98,0.162
61.995,-0.026
62.01,-0.553
62.025,-0.264
62.04,-0.171
62.055,0.103
62.07,0.08
62.085,-0.081
62.1,-0.01
62.115,-0.468
62.13,-0.092
62.145,-0.119
62.16,0.057
62.175,0.393
62.19,0.472
62.205,0.381
62.22,0.177
62.235,0.237
62.25,0.804
62.265,1.042
62.28,1.151
62.295,1.057
62.31,1.181
62.325,1.522
62.34,1.43
62.355,1.479
62.37,1.822
62.385,1.678
62.4,1.563
62.415,1.619
62.43,1.65
62.445,1.816
62.46,1.793
62.475,2.254
62.49,2.248
62.505,1.346
62.52,1.881
62.535,2.736
62.55,2.727
62.565,2.5
62.58,2.406
62.595,3.04
62.61,3.563
62.625,2.875
62.64,2.815
62.655,2.584
62.67,3.159
62.685,3.282
62.7,3.142
62.715,2.946
62.73,2.999
62.745,3.044
62.76,3.36
62.775,3.16
62.79,2.944
62.805,2.863
62.82,2.714
62.835,2.571
62.85,2.863
62.865,2.866
62.88,2.804
62.895,2.737
62.91,2.814
62.925,2.727
62.94,2.89
62.955,2.733
62.97,2.229
62.985,1.39
63,1.422
63.015,1.872
63.03,1.933
63.045,1.976
63.06,1.922
63.075,1.962
63.09,1.753
63.105,1.756
63.12,1.414
63.135,1.212
63.15,1.114
63.165,1.291
63.18,1.129
63.195,0.94
63.21,0.433
63.225,0.272
63.24,0.334
63.255,0.232
63.27,0.256
63.285,0.386
63.3,0.6
63.315,0.166
63.33,0.206
63.345,0.777
63.36,0.454
63.375,0.239
63.39,0.324
63.405,0.65
63.42,0.235
63.435,-0.176
63.45,-0.667
63.465,-0.666
63.48,-0.319
63.495,-0.066
63.51,0.31
63.525,0.134
63.54,0.092
63.555,-0.063
63.57,0.024
63.585,-0.078
63.6,-0.119
63.615,0.244
63.63,-0.072
63.645,-0.359
63.66,-0.278
63.675,0.173
63.69,-0.304
63.705,-0.612
63.72,-0.799
63.735,-0.754
63.75,-0.762
63.765,-0.643
63.78,-0.243
63.795,-0.546
63.81,-0.43
63.825,0.225
63.84,0.021
63.855,-0.34
63.87,-0.498
63.885,-0.313
63.9,0.201
63.915,0.341
63.93,-0.505
63.945,-0.294
63.96,0.168
63.975,0.056
63.99,-0.398
64.005,-0.797
64.02,-0.797
64.035,-0.726
64.05,-0.157
64.065,-0.087
64.08,-0.143
64.095,0.237
64.11,-0.361
64.125,-0.249
64.14,0.215
64.155,0.069
64.17,-0.119
64.185,-0.084
64.2,-0.61
64.215,-0.386
64.23,0.062
64.245,-0.401
64.26,-0.689
64.275,-0.555
64.29,-0.163
64.305,-0.379
64.32,-0.033
64.335,0.028
64.35,-0.371
64.365,-0.184
64.38,-0.347
64.395,-0.142
64.41,-0.047
64.425,0.079
64.44,0.257
64.455,-0.11
64.47,-0.233
64.485,-0.118
64.5,-0.377
64.515,-0.266
64.53,-0.48
64.545,-0.266
64.56,-0.104
64.575,-0.06
64.59,0.234
64.605,0.172
64.62,-0.067
64.635,-0.38
64.65,-0.138
64.665,-0.288
64.68,-0.149
64.695,-0.459
64.71,-0.38
64.725,0.197
64.74,0.287
64.755,-0.238
64.77,-0.527
64.785,-0.132
64.8,-0.347
64.815,-0.459
64.83,-0.424
64.845,-0.519
64.86,0
64.875,0.134
64.89,0.157
64.905,-0.439
64.92,-0.542
64.935,-0.345
64.95,-0.15
64.965,0.366
64.98,-0.145
64.995,-0.506
65.01,-0.396
65.025,-0.423
65.04,-0.552
65.055,-0.797
65.07,-0.685
65.085,-0.376
65.1,-0.125
65.115,-0.381
65.13,-0.208
65.145,-0.314
65.16,-0.325
65.175,-0.225
65.19,-0.032
65.205,0.146
65.22,-0.098
65.235,-0.354
65.25,-0.293
65.265,-0.318
65.28,-0.31
65.295,-0.496
65.31,-0.174
65.325,0.351
65.34,-0.318
65.355,-0.797
65.37,-0.648
65.385,-0.091
65.4,-0.271
65.415,-0.657
65.43,-0.797
65.445,-0.231
65.46,-0.244
65.475,-0.141
65.49,-0.21
65.505,-0.495
65.52,-0.57
65.535,-0.579
65.55,-0.392
65.565,-0.669
65.58,-0.704
65.595,-0.251
65.61,-0.064
65.625,-0.191
65.64,-0.042
65.655,0.368
65.67,-0.326
65.685,-0.502
65.7,-0.303
65.715,-0.433
65.73,-0.566
65.745,-0.394
65.76,-0.097
65.775,-0.216
65.79,-0.175
65.805,-0.203
65.82,-0.085
65.835,-0.05
65.85,-0.031
65.865,-0.372
65.88,-0.356
65.895,-0.354
65.91,-0.378
65.925,-0.367
65.94,-0.08
65.955,-0.265
65.97,-0.307
65.985,-0.316
66,-0.437
66.015,-0.635
66.03,-0.624
66.045,-0.756
66.06,-0.688
66.075,-0.69
66.09,0.011
66.105,-0.141
66.12,-0.268
66.135,-0.406
66.15,-0.22
66.165,-0.213
66.18,-0.255
66.195,-0.143
66.21,-0.416
66.225,-0.703
66.24,-0.797
66.255,-0.088
66.27,0.226
66.285,-0.095
66.3,-0.569
66.315,-0.752
66.33,-0.577
66.345,-0.718
66.36,-0.757
66.375,-0.302
66.39,-0.526
66.405,-0.207
66.42,0.066
66.435,-0.261
66.45,-0.476
66.465,-0.63
66.48,-0.476
66.495,-0.028
66.51,0.031
66.525,-0.407
66.54,-0.497
66.555,-0.523
66.57,-0.452
66.585,-0.229
66.6,-0.196
66.615,-0.118
66.63,-0.746
66.645,-0.796
66.66,-0.682
66.675,-0.457
66.69,0.06
66.705,0.329
66.72,-0.117
66.735,0.011
66.75,-0.103
66.765,-0.282
66.78,-0.098
66.795,-0.047
66.81,0.399
66.825,-0.128
66.84,-0.467
66.855,-0.758
66.87,-0.695
66.885,-0.63
66.9,-0.315
66.915,-0.174
66.93,-0.289
66.945,-0.188
66.96,-0.028
66.975,0.035
66.99,-0.021
67.005,-0.374
67.02,-0.311
67.035,-0.392
67.05,-0.523
67.065,-0.414
67.08,-0.583
67.095,-0.647
67.11,-0.441
67.125,-0.325
67.14,-0.331
67.155,0.136
67.17,0.266
67.185,-0.285
67.2,-0.286
67.215,-0.481
67.23,-0.493
67.245,0.2
67.26,-0.184
67.275,-0.175
67.29,-0.236
67.305,0.172
67.32,0.316
67.335,-0.306
67.35,-0.439
67.365,-0.089
67.38,0.107
67.395,-0.641
67.41,-0.467
67.425,-0.31
67.44,-0.751
67.455,-0.676
67.47,-0.35
67.485,-0.446
67.5,-0.18
67.515,-0.553
67.53,-0.476
67.545,0.206
67.56,-0.049
67.575,-0.485
67.59,-0.442
67.605,-0.602
67.62,-0.794
67.635,-0.732
67.65,-0.544
67.665,-0.201
67.68,-0.135
67.695,-0.218
67.71,-0.133
67.725,-0.443
67.74,-0.301
67.755,-0.113
67.77,-0.165
67.785,-0.115
67.8,-0.562
67.815,-0.244
67.83,-0.241
67.845,-0.694
67.86,-0.794
67.875,-0.363
67.89,-0.309
67.905,0.009
67.92,-0.018
67.935,-0.438
67.95,-0.365
67.965,-0.409
67.98,-0.179
67.995,-0.081
68.01,0.047
68.025,0.009
68.04,-0.316
68.055,-0.441
68.07,-0.677
68.085,-0.326
68.1,-0.118
68.115,-0.444
68.13,-0.214
68.145,-0.477
68.16,-0.596
68.175,-0.22
68.19,0.197
68.205,0.132
68.22,-0.285
68.235,-0.602
68.25,-0.269
68.265,0.311
68.28,0.07
68.295,-0.077
68.31,-0.068
68.325,-0.193
68.34,-0.093
68.355,-0.037
68.37,0.355
68.385,0.018
68.4,-0.295
68.415,0.04
68.43,-0.22
68.445,-0.318
68.46,-0.164
68.475,-0.117
68.49,0.299
68.505,-0.109
68.52,-0.287
68.535,-0.123
68.55,-0.061
68.565,-0.122
68.58,-0.184
68.595,0.102
68.61,0.349
68.625,0.511
68.64,0.25
68.655,0.015
68.67,0.072
68.685,0.496
68.7,0.433
68.715,0.203
68.73,-0.208
68.745,-0.242
68.76,0.019
68.775,0.214
68.79,0.407
68.805,-0.027
68.82,-0.65
68.835,-0.647
68.85,0.509
68.865,0.388
68.88,0.12
68.895,-0.146
68.91,0.033
68.925,0.359
68.94,0.175
68.955,-0.169
68.97,-0.149
68.985,0.832
69,0.513
69.015,0.036
69.03,0.185
69.045,0.554
69.06,0.429
69.075,0.356
69.09,0.069
69.105,0.316
69.12,0.381
69.135,0.262
69.15,0.642
69.165,0.827
69.18,0.852
69.195,0.3
69.21,0.409
69.225,0.257
69.24,0.069
69.255,0.483
69.27,1.194
69.285,0.655
69.3,0.532
69.315,0.796
69.33,0.8
69.345,0.37
69.36,0.292
69.375,1.026
69.39,1.128
69.405,0.617
69.42,0.42
69.435,0.734
69.45,0.919
69.465,1.028
69.48,1.022
69.495,0.681
69.51,0.477
69.525,0.377
69.54,1.014
69.555,1.495
69.57,0.892
69.585,0.587
69.6,0.569
69.615,0.909
69.63,0.65
69.645,0.601
69.66,0.65
69.675,0.622
69.69,0.831
69.705,0.983
69.72,1.141
69.735,1.253
69.75,1.049
69.765,0.717
69.78,0.536
69.795,0.991
69.81,1.32
69.825,1.114
69.84,0.982
69.855,1.055
69.87,1.646
69.885,1.157
69.9,0.816
69.915,0.994
69.93,0.965
69.945,1.441
69.96,1.624
69.975,1.917
69.99,1.045
70.005,0.516
70.02,0.582
70.035,0.756
70.05,0.821
70.065,0.669
70.08,0.831
70.095,0.899
70.11,1.167
70.125,1.506
70.14,1.391
70.155,1.102
70.17,1.4
70.185,1.945
70.2,1.675
70.215,1.466
70.23,1.105
70.245,1.517
70.26,2.121
70.275,2.166
70.29,1.713
70.305,1.358
70.32,1.421
70.335,1.618
70.35,1.835
70.365,2.037
70.38,2.16
70.395,2.2
70.41,1.881
70.425,1.906
70.44,1.403
70.455,1.32
70.47,1.684
70.485,1.469
70.5,1.226
70.515,1.894
70.53,1.948
70.545,2.198
70.56,2.46
70.575,2.118
70.59,2.136
70.605,2.039
70.62,2.122
70.635,2.116
70.65,2.266
70.665,2.466
70.68,2.623
70.695,2.407
70.71,1.887
70.725,1.964
70.74,2.173
70.755,2.579
70.77,2.761
70.785,2.421
70.8,1.996
70.815,2.386
70.83,2.482
70.845,2.664
70.86,2.557
70.875,3.004
70.89,3.198
70.905,3.114
70.92,2.773
70.935,2.364
70.95,2.235
70.965,3.099
70.98,2.809
70.995,2.684
71.01,2.867
71.025,2.89
71.04,2.8
71.055,2.492
71.07,3.036
71.085,3.418
71.1,3.177
71.115,3.154
71.13,3.145
71.145,2.497
71.16,2.703
71.175,3.391
71.19,3.546
71.205,3.467
71.22,3.615
71.235,3.728
71.25,3.807
71.265,3.715
71.28,3.282
71.295,2.921
71.31,3.173
71.325,3.57
71.34,3.491
71.355,3.677
71.37,3.265
71.385,2.938
71.4,3.165
71.415,3.632
71.43,3.41
71.445,2.872
71.46,2.966
71.475,3.296
71.49,3.528
71.505,3.604
71.52,3.847
71.535,3.844
71.55,3.434
71.565,3.633
71.58,3.685
71.595,3.323
71.61,3.578
71.625,4.313
71.64,4.376
71.655,3.992
71.67,3.956
71.685,3.993
71.7,3.903
71.715,3.672
71.73,3.826
71.745,4.16
71.76,3.805
71.775,3.546
71.79,3.685
71.805,4.019
71.82,4.201
71.835,4.047
71.85,3.804
71.865,4.075
71.88,4.148
71.895,4.103
71.91,4.109
71.925,4.076
71.94,3.894
71.955,4.271
71.97,4.816
71.985,4.999
72,4.958
72.015,4.809
72.03,4.446
72.045,4.508
72.06,4.411
72.075,4.62
72.09,4.436
72.105,4.69
72.12,4.935
72.135,5.382
72.15,5.497
72.165,4.946
72.18,4.885
72.195,5.426
72.21,5.167
72.225,4.803
72.24,5.133
72.255,5.096
72.27,5.281
72.285,5.356
72.3,6.004
72.315,5.896
72.33,5.497
72.345,5.62
72.36,5.51
72.375,5.235
72.39,5.55
72.405,5.79
72.42,5.558
72.435,5.625
72.45,5.485
72.465,5.85
72.48,5.749
72.495,5.72
72.51,5.783
72.525,5.457
72.54,5.769
72.555,5.629
72.57,5.373
72.585,5.377
72.6,5.605
72.615,5.653
72.63,5.893
72.645,5.97
72.66,6.085
72.675,5.951
72.69,6.215
72.705,6.267
72.72,6.204
72.735,5.936
72.75,5.83
72.765,5.893
72.78,5.757
72.795,6.542
72.81,6.831
72.825,6.196
72.84,6.167
72.855,6.522
72.87,6.524
72.885,6.831
72.9,6.828
72.915,6.78
72.93,6.903
72.945,7.328
72.96,7.555
72.975,7.207
72.99,6.92
73.005,7.006
73.02,6.858
73.035,6.646
73.05,7.142
73.065,6.819
73.08,6.742
73.095,7.223
73.11,7.636
73.125,7.364
73.14,7.347
73.155,7.563
73.17,7.768
73.185,7.142
73.2,7.128
73.215,7.545
73.23,7.591
73.245,7.368
73.26,7.238
73.275,7.091
73.29,7.663
73.305,8.192
73.32,8.128
73.335,8.448
73.35,8.575
73.365,8.193
73.38,8.001
73.395,7.979
73.41,7.711
73.425,7.559
73.44,8.18
73.455,8.979
73.47,9.049
73.485,8.819
73.5,8.695
73.515,8.775
73.53,8.87
73.545,8.499
73.56,8.901
73.575,9.255
73.59,8.785
73.605,8.984
73.62,9.245
73.635,8.847
73.65,8.552
73.665,8.898
73.68,8.824
73.695,8.613
73.71,8.957
73.725,9.711
73.74,10.09
73.755,9.848
73.77,9.295
73.785,9.144
73.8,9.083
73.815,9.21
73.83,9.647
73.845,9.764
73.86,9.773
73.875,9.475
73.89,9.706
73.905,9.745
73.92,9.817
73.935,10.11
73.95,10.096
73.965,10.839
73.98,10.746
73.995,9.957
74.01,10.23
74.025,10.79
74.04,10.815
74.055,10.564
74.07,10.845
74.085,10.37
74.1,10.386
74.115,10.657
74.13,10.858
74.145,10.957
74.16,10.641
74.175,10.787
74.19,10.992
74.205,11.222
74.22,11.014
74.235,10.759
74.25,10.47
74.265,10.881
74.28,11.084
74.295,11.083
74.31,11.57
74.325,11.428
74.34,11.781
74.355,11.508
74.37,11.506
74.385,11.366
74.4,10.837
74.415,11.047
74.43,11.571
74.445,11.98
74.46,11.994
74.475,12.052
74.49,11.497
74.505,10.976
74.52,11.499
74.535,11.99
74.55,12.223
74.565,12.41
74.58,12.292
74.595,12.377
74.61,12.627
74.625,12.746
74.64,12.199
74.655,12.481
74.67,12.63
74.685,12.302
74.7,12.143
74.715,12.508
74.73,12.815
74.745,12.65
74.76,12.939
74.775,12.755
74.79,12.714
74.805,13.21
74.82,12.981
74.835,12.94
74.85,12.487
74.865,12.569
74.88,12.722
74.895,13.397
74.91,13.301
74.925,13.066
74.94,13.353
74.955,13.302
74.97,12.582
74.985,12.777
75,13.064
75.015,13.15
75.03,13.238
75.045,13.119
75.06,13.055
75.075,13.356
75.09,13.742
75.105,13.616
75.12,13.343
75.135,13.817
75.15,13.858
75.165,13.316
75.18,13.517
75.195,12.965
75.21,12.877
75.225,13.055
75.24,12.831
75.255,12.796
75.27,13.686
75.285,14.844
75.3,13.477
75.315,11.871
75.33,10.204
75.345,0
