24.99,0
25.005,-0.128
25.02,-0.084
25.035,0.001
25.05,-0.02
25.065,0.058
25.08,0.089
25.095,0.034
25.11,0.017
25.125,-0.054
25.14,0.037
25.155,0.097
25.17,0.131
25.185,0.1
25.2,0.04
25.215,0.033
25.23,0.034
25.245,-0.032
25.26,0.036
25.275,-0.022
25.29,0
25.305,0.073
25.32,0.064
25.335,0.101
25.35,0.067
25.365,0.081
25.38,0.013
25.395,-0.024
25.41,0.011
25.425,0.068
25.44,0.129
25.455,0.052
25.47,-0.059
25.485,0
25.5,0.019
25.515,0.009
25.53,0.027
25.545,0.064
25.56,0.034
25.575,0.022
25.59,0.098
25.605,0.123
25.62,0.091
25.635,0.05
25.65,0.057
25.665,0.133
25.68,0.105
25.695,0.012
25.71,0.039
25.725,0.044
25.74,0.053
25.755,0.01
25.77,-0.057
25.785,0.019
25.8,0.051
25.815,-0.002
25.83,0.049
25.845,0.109
25.86,0.05
25.875,-0.022
25.89,-0.011
25.905,0.035
25.92,0.017
25.935,0.021
25.95,0.004
25.965,0.117
25.98,0.112
25.995,0.081
26.01,0.069
26.025,0.056
26.04,0.042
26.055,0.013
26.07,0.013
26.085,0.033
26.1,0.022
26.115,0.041
26.13,0.065
26.145,0.101
26.16,0.109
26.175,0.042
26.19,-0.005
26.205,-0.048
26.22,-0.021
26.235,0.054
26.25,0.033
26.265,-0.04
26.28,-0.028
26.295,0.031
26.31,0.083
26.325,0.054
26.34,-0.032
26.355,-0.034
26.37,0.013
26.385,0.021
26.4,0.008
26.415,0.037
26.43,0.024
26.445,0.023
26.46,0.044
26.475,-0.013
26.49,-0.028
26.505,-0.016
26.52,0.001
26.535,-0.019
26.55,-0.036
26.565,-0.032
26.58,-0.006
26.595,-0.013
26.61,0.002
26.625,0.008
26.64,-0.004
26.655,-0.041
26.67,-0.051
26.685,-0.074
26.7,-0.02
26.715,0.013
26.73,-0.017
26.745,-0.034
26.76,-0.038
26.775,-0.042
26.79,-0.02
26.805,0.038
26.82,0.049
26.835,-0.042
26.85,-0.059
26.865,0.008
26.88,0.054
26.895,0.02
26.91,-0.044
26.925,-0.064
26.94,-0.043
26.955,-0.067
26.97,-0.062
26.985,-0.082
27,-0.035
27.015,0.013
27.03,-0.026
27.045,-0.047
27.06,-0.053
27.075,-0.031
27.09,-0.008
27.105,-0.017
27.12,-0.042
27.135,-0.029
27.15,0.021
27.165,0.037
27.18,0.054
27.195,-0.002
27.21,-0.082
27.225,-0.066
27.24,0
27.255,0.013
27.27,-0.058
27.285,-0.009
27.3,0.055
27.315,0.036
27.33,-0.029
27.345,-0.046
27.36,-0.05
27.375,-0.027
27.39,-0.044
27.405,-0.061
27.42,-0.039
27.435,-0.047
27.45,-0.045
27.465,-0.054
27.48,-0.032
27.495,-0.002
27.51,0.002
27.525,-0.007
27.54,-0.003
27.555,-0.01
27.57,-0.017
27.585,-0.061
27.6,-0.078
27.615,-0.07
27.63,-0.039
27.645,-0.029
27.66,-0.036
27.675,-0.034
27.69,-0.056
27.705,-0.082
27.72,-0.021
27.735,-0.022
27.75,-0.04
27.765,-0.046
27.78,-0.049
27.795,-0.067
27.81,-0.065
27.825,-0.033
27.84,-0.02
27.855,-0.023
27.87,-0.073
27.885,-0.046
27.9,0.011
27.915,-0.055
27.93,-0.082
27.945,-0.054
27.96,-0.077
27.975,-0.041
27.99,-0.03
28.005,-0.011
28.02,-0.054
28.035,0.011
28.05,0.028
28.065,0.019
28.08,0.011
28.095,-0.015
28.11,-0.013
28.125,-0.003
28.14,-0.003
28.155,-0.055
28.17,-0.075
28.185,0.009
28.2,-0.004
28.215,0.016
28.23,-0.05
28.245,-0.051
28.26,0.01
28.275,-0.009
28.29,-0.045
28.305,-0.038
28.32,0.007
28.335,-0.027
28.35,-0.035
28.365,-0.017
28.38,-0.06
28.395,-0.024
28.41,0.009
28.425,-0.063
28.44,-0.071
28.455,0
28.47,0.04
28.485,0.029
28.5,0.006
28.515,0.032
28.53,0.005
28.545,0.025
28.56,0.03
28.575,-0.028
28.59,-0.082
28.605,-0.056
28.62,0.021
28.635,0.029
28.65,0.01
28.665,0.018
28.68,0.014
28.695,0.013
28.71,0.052
28.725,0.023
28.74,0.016
28.755,-0.005
28.77,-0.016
28.785,-0.004
28.8,0.001
28.815,0.02
28.83,0.005
28.845,-0.019
28.86,-0.037
28.875,-0.028
28.89,-0.034
28.905,-0.032
28.92,-0.008
28.935,-0.029
28.95,-0.005
28.965,0.014
28.98,-0.051
28.995,-0.045
29.01,-0.045
29.025,-0.033
29.04,-0.042
29.055,-0.078
29.07,-0.082
29.085,-0.023
29.1,-0.05
29.115,-0.02
29.13,0.047
29.145,0.093
29.16,0.027
29.175,-0.045
29.19,0.001
29.205,-0.051
29.22,-0.057
29.235,0
29.25,0.023
29.265,0.004
29.28,0.02
29.295,0.038
29.31,-0.018
29.325,0.001
29.34,-0.021
29.355,0.034
29.37,0.014
29.385,0.026
29.4,0.054
29.415,0.043
29.43,-0.009
29.445,0.047
29.46,0.113
29.475,0.089
29.49,0.055
29.505,0.076
29.52,0.131
29.535,0.128
29.55,0.135
29.565,0.165
29.58,0.181
29.595,0.273
29.61,0.357
29.625,0.336
29.64,0.372
29.655,0.437
29.67,0.495
29.685,0.592
29.7,0.631
29.715,0.72
29.73,0.767
29.745,0.843
29.76,0.888
29.775,0.969
29.79,1.118
29.805,1.174
29.82,1.229
29.835,1.361
29.85,1.509
29.865,1.596
29.88,1.695
29.895,1.76
29.91,1.835
29.925,1.934
29.94,2.073
29.955,2.172
29.97,2.281
29.985,2.34
30,2.4
30.015,2.47
30.03,2.529
30.045,2.607
30.06,2.691
30.075,2.766
30.09,2.76
30.105,2.785
30.12,2.832
30.135,2.873
30.15,2.861
30.165,2.83
30.18,2.799
30.195,2.792
30.21,2.724
30.225,2.697
30.24,2.649
30.255,2.636
30.27,2.58
30.285,2.49
30.3,2.454
30.315,2.367
30.33,2.264
30.345,2.117
30.36,2.01
30.375,1.961
30.39,1.87
30.405,1.806
30.42,1.712
30.435,1.595
30.45,1.518
30.465,1.443
30.48,1.334
30.495,1.247
30.51,1.169
30.525,1.063
30.54,0.99
30.555,0.934
30.57,0.822
30.585,0.747
30.6,0.687
30.615,0.662
30.63,0.641
30.645,0.559
30.66,0.489
30.675,0.437
30.69,0.373
30.705,0.328
30.72,0.271
30.735,0.239
30.75,0.203
30.765,0.162
30.78,0.192
30.795,0.171
30.81,0.11
30.825,0.062
30.84,0.068
30.855,0.131
30.87,0.118
30.885,0.015
30.9,0.006
30.915,0.032
30.93,-0.022
30.945,-0.061
30.96,0.028
30.975,0.008
30.99,-0.044
31.005,-0.031
31.02,-0.017
31.035,-0.079
31.05,-0.063
31.065,-0.04
31.08,-0.016
31.095,-0.018
31.11,-0.036
31.125,-0.053
31.14,-0.044
31.155,-0.055
31.17,-0.049
31.185,-0.073
31.2,-0.044
31.215,-0.036
31.23,-0.052
31.245,-0.054
31.26,-0.029
31.275,-0.037
31.29,-0.041
31.305,-0.039
31.32,-0.03
31.335,0.007
31.35,-0.023
31.365,-0.046
31.38,-0.02
31.395,-0.074
31.41,-0.027
31.425,-0.02
31.44,-0.023
31.455,-0.038
31.47,-0.042
31.485,-0.025
31.5,-0.005
31.515,-0.009
31.53,-0.021
31.545,0.039
31.56,-0.021
31.575,-0.082
31.59,-0.051
31.605,-0.013
31.62,0.003
31.635,-0.003
31.65,0.016
31.665,-0.006
31.68,-0.001
31.695,0.002
31.71,-0.023
31.725,0.005
31.74,0.005
31.755,-0.002
31.77,-0.038
31.785,-0.04
31.8,-0.017
31.815,-0.042
31.83,-0.038
31.845,-0.032
31.86,-0.029
31.875,-0.063
31.89,-0.025
31.905,-0.02
31.92,-0.01
31.935,-0.006
31.95,-0.001
31.965,-0.013
31.98,-0.055
31.995,-0.017
32.01,0.034
32.025,-0.033
32.04,-0.04
32.055,-0.082
32.07,-0.052
32.085,-0.051
32.1,-0.08
32.115,-0.008
32.13,-0.007
32.145,-0.025
32.16,0.008
32.175,-0.049
32.19,-0.066
32.205,-0.078
32.22,-0.034
32.235,-0.048
32.25,-0.033
32.265,-0.021
32.28,-0.034
32.295,-0.035
32.31,-0.003
32.325,-0.033
32.34,-0.021
32.355,-0.004
32.37,-0.042
32.385,0.029
32.4,0.026
32.415,-0.034
32.43,-0.01
32.445,-0.082
32.46,-0.025
32.475,-0.018
32.49,-0.047
32.505,-0.037
32.52,-0.022
32.535,-0.02
32.55,-0.033
32.565,-0.058
32.58,0.008
32.595,0.002
32.61,-0.044
32.625,-0.036
32.64,-0.022
32.655,-0.058
32.67,-0.048
32.685,-0.025
32.7,-0.022
32.715,-0.021
32.73,-0.056
32.745,-0.064
32.76,-0.051
32.775,-0.024
32.79,-0.028
32.805,0.01
32.82,0.008
32.835,-0.035
32.85,-0.082
32.865,-0.062
32.88,-0.057
32.895,-0.056
32.91,-0.029
32.925,-0.006
32.94,0.026
32.955,-0.006
32.97,-0.067
32.985,-0.059
33,-0.057
33.015,-0.082
33.03,-0.079
33.045,-0.065
33.06,-0.059
33.075,-0.02
33.09,-0.018
33.105,0.039
33.12,-0.003
33.135,-0.025
33.15,-0.04
33.165,-0.038
33.18,-0.053
33.195,-0.046
33.21,-0.011
33.225,-0.001
33.24,0.003
33.255,0.005
33.27,-0.031
33.285,-0.001
33.3,-0.039
33.315,-0.082
33.33,-0.043
33.345,-0.031
33.36,0.021
33.375,0.009
33.39,-0.028
33.405,-0.02
33.42,0.005
33.435,0.028
33.45,0.01
33.465,0.009
33.48,0.015
33.495,-0.014
33.51,-0.02
33.525,-0.056
33.54,-0.06
33.555,-0.058
33.57,-0.073
33.585,-0.031
33.6,-0.016
33.615,-0.015
33.63,-0.015
33.645,-0.03
33.66,-0.052
33.675,-0.054
33.69,-0.082
33.705,-0.079
33.72,-0.053
33.735,-0.031
33.75,-0.035
33.765,-0.015
33.78,-0.023
33.795,-0.041
33.81,-0.017
33.825,-0.021
33.84,-0.012
33.855,-0.038
33.87,-0.032
33.885,-0.046
33.9,-0.059
33.915,-0.055
33.93,-0.029
33.945,-0.007
33.96,0
33.975,0.001
33.99,-0.014
34.005,-0.038
34.02,-0.038
34.035,-0.048
34.05,-0.04
34.065,-0.076
34.08,-0.024
34.095,-0.018
34.11,0.011
34.125,0.008
34.14,-0.007
34.155,-0.009
34.17,-0.016
34.185,0.035
34.2,0.076
34.215,0.046
34.23,-0.003
34.245,0.053
34.26,0.074
34.275,0.051
34.29,0.035
34.305,0.067
34.32,0.121
34.335,0.107
34.35,0.038
34.365,0.153
34.38,0.135
34.395,0.139
34.41,0.107
34.425,0.148
34.44,0.119
34.455,0.109
34.47,0.181
34.485,0.204
34.5,0.199
34.515,0.235
34.53,0.214
34.545,0.22
34.56,0.229
34.575,0.25
34.59,0.28
34.605,0.298
34.62,0.309
34.635,0.307
34.65,0.274
34.665,0.255
34.68,0.289
34.695,0.327
34.71,0.294
34.725,0.321
34.74,0.399
34.755,0.4
34.77,0.447
34.785,0.474
34.8,0.473
34.815,0.507
34.83,0.583
34.845,0.657
34.86,0.688
34.875,0.734
34.89,0.812
34.905,0.899
34.92,0.983
34.935,1.071
34.95,1.145
34.965,1.233
34.98,1.377
34.995,1.552
35.01,1.731
35.025,1.931
35.04,2.082
35.055,2.213
35.07,2.41
35.085,2.675
35.1,2.875
35.115,3.087
35.13,3.32
35.145,3.543
35.16,3.827
35.175,4.154
35.19,4.395
35.205,4.713
35.22,5.033
35.235,5.345
35.25,5.623
35.265,5.941
35.28,6.284
35.295,6.544
35.31,6.818
35.325,7.08
35.34,7.368
35.355,7.636
35.37,7.913
35.385,8.12
35.4,8.318
35.415,8.495
35.43,8.672
35.445,8.81
35.46,8.912
35.475,8.985
35.49,8.954
35.505,8.993
35.52,9.006
35.535,8.857
35.55,8.81
35.565,8.776
35.58,8.688
35.595,8.53
35.61,8.379
35.625,8.2
35.64,8.015
35.655,7.807
35.67,7.547
35.685,7.305
35.7,7.064
35.715,6.802
35.73,6.54
35.745,6.327
35.76,6.006
35.775,5.677
35.79,5.483
35.805,5.229
35.82,4.968
35.835,4.72
35.85,4.448
35.865,4.154
35.88,3.903
35.895,3.651
35.91,3.425
35.925,3.162
35.94,2.993
35.955,2.759
35.97,2.549
35.985,2.318
36,2.122
36.015,1.937
36.03,1.765
36.045,1.615
36.06,1.431
36.075,1.316
36.09,1.215
36.105,1.052
36.12,0.947
36.135,0.892
36.15,0.754
36.165,0.643
36.18,0.634
36.195,0.553
36.21,0.466
36.225,0.427
36.24,0.376
36.255,0.368
36.27,0.317
36.285,0.271
36.3,0.23
36.315,0.241
36.33,0.211
36.345,0.142
36.36,0.187
36.375,0.119
36.39,0.121
36.405,0.11
36.42,0.103
36.435,0.092
36.45,0.092
36.465,0.112
36.48,0.109
36.495,0.071
36.51,0.03
36.525,0.093
36.54,0.113
36.555,0.093
36.57,0.067
36.585,0.097
36.6,0.09
36.615,0.087
36.63,0.081
36.645,0.068
36.66,0.067
36.675,0.058
36.69,0.085
36.705,0.085
36.72,0.119
36.735,0.071
36.75,-0.016
36.765,0.047
36.78,0.087
36.795,0.141
36.81,0.239
36.825,0.269
36.84,0.227
36.855,0.121
36.87,0.131
36.885,0.176
36.9,0.232
36.915,0.256
36.93,0.306
36.945,0.322
36.96,0.311
36.975,0.299
36.99,0.282
37.005,0.263
37.02,0.323
37.035,0.311
37.05,0.36
37.065,0.377
37.08,0.375
37.095,0.307
37.11,0.322
37.125,0.348
37.14,0.334
37.155,0.334
37.17,0.325
37.185,0.327
37.2,0.346
37.215,0.356
37.23,0.312
37.245,0.235
37.26,0.208
37.275,0.24
37.29,0.26
37.305,0.201
37.32,0.171
37.335,0.198
37.35,0.201
37.365,0.182
37.38,0.138
37.395,0.116
37.41,0.095
37.425,0.077
37.44,0.06
37.455,0.078
37.47,0.06
37.485,0.067
37.5,0.075
37.515,0.036
37.53,0.038
37.545,0.025
37.56,0.012
37.575,0.016
37.59,-0.003
37.605,-0.023
37.62,-0.035
37.635,-0.006
37.65,-0.003
37.665,-0.033
37.68,-0.052
37.695,-0.063
37.71,-0.04
37.725,-0.046
37.74,-0.02
37.755,-0.018
37.77,-0.052
37.785,-0.08
37.8,-0.06
37.815,-0.061
37.83,-0.054
37.845,-0.081
37.86,-0.041
37.875,-0.051
37.89,-0.07
37.905,-0.015
37.92,-0.004
37.935,-0.058
37.95,-0.02
37.965,0.03
37.98,-0.02
37.995,-0.043
38.01,-0.031
38.025,-0.054
38.04,-0.058
38.055,0.016
38.07,0.021
38.085,-0.032
38.1,-0.036
38.115,-0.038
38.13,-0.081
38.145,-0.019
38.16,0.056
38.175,0.028
38.19,-0.026
38.205,0.017
38.22,0.011
38.235,0.032
38.25,0.013
38.265,-0.023
38.28,-0.01
38.295,-0.038
38.31,-0.048
38.325,-0.014
38.34,-0.037
38.355,-0.05
38.37,-0.008
38.385,-0.049
38.4,-0.014
38.415,0.023
38.43,-0.06
38.445,-0.043
38.46,-0.045
38.475,-0.042
38.49,-0.05
38.505,-0.059
38.52,-0.027
38.535,-0.027
38.55,0.002
38.565,-0.02
38.58,-0.059
38.595,-0.035
38.61,-0.021
38.625,-0.042
38.64,-0.055
38.655,-0.068
38.67,-0.081
38.685,-0.009
38.7,0.007
38.715,0.006
38.73,-0.038
38.745,0.017
38.76,0.004
38.775,-0.07
38.79,-0.061
38.805,-0.01
38.82,-0.06
38.835,-0.063
38.85,-0.036
38.865,-0.066
38.88,-0.013
38.895,-0.049
38.91,-0.015
38.925,0.05
38.94,0.033
38.955,-0.012
38.97,-0.005
38.985,-0.059
39,-0.054
39.015,-0.033
39.03,-0.017
39.045,-0.022
39.06,0.015
39.075,0.004
39.09,-0.024
39.105,-0.049
39.12,-0.035
39.135,-0.041
39.15,-0.022
39.165,0
39.18,0.018
39.195,0.012
39.21,0.014
39.225,0.018
39.24,-0.044
39.255,-0.081
39.27,-0.042
39.285,-0.026
39.3,0.029
39.315,-0.014
39.33,-0.065
39.345,-0.013
39.36,0.036
39.375,-0.015
39.39,-0.057
39.405,-0.01
39.42,-0.011
39.435,-0.01
39.45,0.005
39.465,-0.007
39.48,-0.025
39.495,-0.01
39.51,-0.013
39.525,0.018
39.54,0.027
39.555,0.002
39.57,0.007
39.585,-0.046
39.6,0.02
39.615,0.017
39.63,-0.019
39.645,-0.038
39.66,-0.059
39.675,-0.053
39.69,0.032
39.705,0.076
39.72,0.014
39.735,-0.006
39.75,-0.018
39.765,0.027
39.78,-0.031
39.795,-0.055
39.81,-0.043
39.825,0.013
39.84,0.022
39.855,0.007
39.87,0.02
39.885,-0.007
39.9,0.001
39.915,0.003
39.93,0.027
39.945,-0.043
39.96,-0.081
39.975,-0.018
39.99,-0.042
40.005,-0.021
40.02,0.02
40.035,0.006
40.05,-0.021
40.065,-0.017
40.08,0.009
40.095,-0.057
40.11,-0.028
40.125,0.027
40.14,0.007
40.155,0.016
40.17,0.011
40.185,0.026
40.2,0.014
40.215,0.003
40.23,-0.027
40.245,-0.055
40.26,-0.036
40.275,0.001
40.29,-0.064
40.305,-0.066
40.32,-0.034
40.335,-0.061
40.35,-0.079
40.365,-0.056
40.38,-0.051
40.395,-0.032
40.41,-0.053
40.425,-0.023
40.44,-0.006
40.455,-0.006
40.47,-0.023
40.485,-0.012
40.5,-0.072
40.515,-0.039
40.53,-0.022
40.545,-0.031
40.56,0.017
40.575,0.009
40.59,-0.058
40.605,-0.039
40.62,-0.025
40.635,0.01
40.65,0.039
40.665,0.042
40.68,0.002
40.695,-0.01
40.71,-0.049
40.725,-0.037
40.74,0.002
40.755,-0.009
40.77,0.031
40.785,0.001
40.8,-0.065
40.815,-0.068
40.83,-0.081
40.845,-0.076
40.86,-0.009
40.875,-0.021
40.89,-0.033
40.905,-0.036
40.92,-0.027
40.935,-0.025
40.95,-0.025
40.965,-0.016
40.98,-0.016
40.995,0.045
41.01,0.053
41.025,0.061
41.04,0.026
41.055,0.002
41.07,0.012
41.085,-0.048
41.1,-0.021
41.115,0.039
41.13,-0.006
41.145,-0.051
41.16,0.025
41.175,0.013
41.19,0.004
41.205,0.006
41.22,-0.045
41.235,0.01
41.25,-0.048
41.265,-0.081
41.28,-0.024
41.295,-0.012
41.31,-0.03
41.325,-0.025
41.34,0.004
41.355,0.03
41.37,0.053
41.385,0.01
41.4,0.016
41.415,0.007
41.43,-0.059
41.445,-0.039
41.46,-0.057
41.475,-0.044
41.49,-0.055
41.505,-0.04
41.52,-0.017
41.535,0.024
41.55,-0.008
41.565,-0.037
41.58,0.003
41.595,-0.008
41.61,0
41.625,-0.07
41.64,-0.041
41.655,-0.047
41.67,-0.071
41.685,-0.067
41.7,-0.046
41.715,-0.08
41.73,-0.052
41.745,-0.057
41.76,-0.063
41.775,-0.036
41.79,-0.014
41.805,-0.045
41.82,-0.031
41.835,-0.061
41.85,-0.081
41.865,-0.01
41.88,-0.02
41.895,-0.042
41.91,-0.053
41.925,-0.026
41.94,-0.057
41.955,-0.065
41.97,-0.061
41.985,-0.062
42,-0.077
42.015,-0.051
42.03,0.007
42.045,0.002
42.06,-0.081
42.075,-0.032
42.09,-0.011
42.105,-0.057
42.12,-0.047
42.135,-0.021
42.15,-0.022
42.165,-0.006
42.18,-0.036
42.195,-0.077
42.21,-0.043
42.225,-0.004
42.24,-0.045
42.255,-0.026
42.27,0.008
42.285,-0.054
42.3,-0.048
42.315,0
42.33,0.013
42.345,0.012
42.36,-0.008
42.375,-0.046
42.39,-0.009
42.405,0.032
42.42,0.047
42.435,0.073
42.45,0.044
42.465,0.04
42.48,0.035
42.495,0.036
42.51,0.071
42.525,0.074
42.54,0.1
42.555,0.119
42.57,0.128
42.585,0.109
42.6,0.162
42.615,0.156
42.63,0.151
42.645,0.21
42.66,0.201
42.675,0.216
42.69,0.265
42.705,0.332
42.72,0.395
42.735,0.439
42.75,0.477
42.765,0.495
42.78,0.508
42.795,0.578
42.81,0.607
42.825,0.594
42.84,0.67
42.855,0.726
42.87,0.822
42.885,0.92
42.9,0.96
42.915,0.997
42.93,1.037
42.945,1.119
42.96,1.185
42.975,1.232
42.99,1.331
43.005,1.356
43.02,1.4
43.035,1.44
43.05,1.495
43.065,1.523
43.08,1.57
43.095,1.628
43.11,1.628
43.125,1.613
43.14,1.625
43.155,1.675
43.17,1.651
43.185,1.658
43.2,1.635
43.215,1.614
43.23,1.603
43.245,1.577
43.26,1.57
43.275,1.496
43.29,1.438
43.305,1.386
43.32,1.355
43.335,1.319
43.35,1.365
43.365,1.306
43.38,1.176
43.395,1.146
43.41,1.146
43.425,1.096
43.44,0.996
43.455,0.935
43.47,0.908
43.485,0.895
43.5,0.814
43.515,0.784
43.53,0.743
43.545,0.677
43.56,0.615
43.575,0.533
43.59,0.473
43.605,0.443
43.62,0.426
43.635,0.41
43.65,0.352
43.665,0.353
43.68,0.325
43.695,0.262
43.71,0.226
43.725,0.242
43.74,0.238
43.755,0.198
43.77,0.121
43.785,0.081
43.8,0.083
43.815,0.068
43.83,0.032
43.845,0.049
43.86,0.035
43.875,0.015
43.89,0.029
43.905,0.033
43.92,0.041
43.935,0.024
43.95,0.002
43.965,0.031
43.98,0.006
43.995,0.029
44.01,0.001
44.025,-0.036
44.04,-0.011
44.055,0.007
44.07,-0.01
44.085,-0.034
44.1,-0.009
44.115,-0.035
44.13,-0.029
44.145,-0.024
44.16,-0.037
44.175,0.002
44.19,-0.017
44.205,-0.081
44.22,-0.075
44.235,-0.047
44.25,-0.039
44.265,-0.023
44.28,0.004
44.295,0.002
44.31,-0.046
44.325,-0.071
44.34,-0.033
44.355,-0.045
44.37,-0.008
44.385,-0.025
44.4,-0.031
44.415,0
44.43,0.003
44.445,-0.046
44.46,-0.038
44.475,-0.057
44.49,-0.042
44.505,-0.035
44.52,-0.024
44.535,0.022
44.55,-0.012
44.565,-0.081
44.58,-0.047
44.595,-0.047
44.61,-0.069
44.625,-0.067
44.64,-0.019
44.655,-0.013
44.67,-0.035
44.685,-0.039
44.7,-0.006
44.715,0.019
44.73,-0.014
44.745,-0.029
44.76,0.027
44.775,0.008
44.79,0.018
44.805,-0.031
44.82,-0.04
44.835,-0.023
44.85,-0.033
44.865,-0.018
44.88,0.001
44.895,0.02
44.91,0.019
44.925,-0.045
44.94,-0.048
44.955,-0.04
44.97,-0.021
44.985,-0.045
45,-0.078
45.015,-0.01
45.03,0.027
45.045,0.044
45.06,-0.012
45.075,-0.024
45.09,-0.017
45.105,-0.009
45.12,-0.032
45.135,-0.064
45.15,-0.014
45.165,0.014
45.18,-0.018
45.195,-0.008
45.21,0.019
45.225,-0.011
45.24,-0.041
45.255,-0.002
45.27,0
45.285,0
45.3,0.042
45.315,-0.024
45.33,-0.066
45.345,-0.07
45.36,-0.072
45.375,-0.08
45.39,-0.006
45.405,-0.022
45.42,-0.009
45.435,0.011
45.45,-0.012
45.465,-0.045
45.48,-0.052
45.495,-0.053
45.51,-0.023
45.525,-0.036
45.54,-0.029
45.555,-0.03
45.57,-0.008
45.585,0.015
45.6,-0.063
45.615,-0.023
45.63,0.009
45.645,-0.015
45.66,-0.004
45.675,-0.012
45.69,-0.012
45.705,-0.078
45.72,-0.08
45.735,-0.004
45.75,-0.058
45.765,-0.059
45.78,-0.039
45.795,-0.01
45.81,0.007
45.825,-0.046
45.84,-0.007
45.855,-0.021
45.87,-0.035
45.885,-0.005
45.9,0.013
45.915,0.005
45.93,0
45.945,-0.064
45.96,-0.072
45.975,-0.034
45.99,-0.052
46.005,-0.036
46.02,-0.044
46.035,-0.067
46.05,-0.069
46.065,-0.052
46.08,-0.036
46.095,-0.032
46.11,-0.055
46.125,-0.051
46.14,-0.045
46.155,-0.041
46.17,-0.037
46.185,-0.039
46.2,-0.024
46.215,-0.033
46.23,-0.025
46.245,-0.042
46.26,-0.031
46.275,0.012
46.29,-0.039
46.305,-0.029
46.32,0.009
46.335,-0.029
46.35,-0.036
46.365,-0.009
46.38,-0.021
46.395,-0.021
46.41,-0.036
46.425,-0.05
46.44,-0.044
46.455,-0.047
46.47,-0.033
46.485,-0.031
46.5,-0.08
46.515,-0.035
46.53,0.004
46.545,0.036
46.56,0.04
46.575,0.009
46.59,-0.018
46.605,-0.066
46.62,-0.012
46.635,0.006
46.65,-0.039
46.665,-0.007
46.68,-0.005
46.695,0.011
46.71,0.013
46.725,-0.004
46.74,-0.006
46.755,-0.008
46.77,-0.063
46.785,-0.071
46.8,-0.035
46.815,-0.003
46.83,-0.039
46.845,-0.04
46.86,-0.028
46.875,-0.066
46.89,-0.036
46.905,-0.024
46.92,-0.053
46.935,-0.01
46.95,-0.023
46.965,-0.044
46.98,-0.057
46.995,-0.024
47.01,0.004
47.025,-0.032
47.04,-0.048
47.055,-0.063
47.07,-0.037
47.085,-0.03
47.1,-0.048
47.115,-0.021
47.13,-0.053
47.145,-0.032
47.16,0.024
47.175,0.008
47.19,-0.06
47.205,-0.059
47.22,-0.031
47.235,-0.008
47.25,0.001
47.265,-0.034
47.28,-0.024
47.295,0.001
47.31,-0.021
47.325,-0.012
47.34,0.012
47.355,0.055
47.37,0.004
47.385,0.007
47.4,-0.01
47.415,-0.062
47.43,-0.08
47.445,-0.056
47.46,-0.044
47.475,0.001
47.49,0.007
47.505,-0.016
47.52,-0.027
47.535,-0.014
47.55,0.006
47.565,-0.03
47.58,-0.023
47.595,-0.031
47.61,-0.041
47.625,-0.028
47.64,-0.019
47.655,0.021
47.67,0
47.685,-0.021
47.7,-0.011
47.715,0.007
47.73,-0.011
47.745,-0.033
47.76,-0.05
47.775,-0.007
47.79,-0.056
47.805,-0.036
47.82,-0.033
47.835,-0.043
47.85,-0.031
47.865,0.053
47.88,0.052
47.895,-0.004
47.91,0.022
47.925,0.012
47.94,-0.051
47.955,-0.08
47.97,-0.048
47.985,-0.005
48,-0.029
48.015,-0.026
48.03,0.006
48.045,-0.004
48.06,-0.014
48.075,-0.023
48.09,-0.074
48.105,-0.024
48.12,-0.036
48.135,-0.041
48.15,-0.004
48.165,-0.004
48.18,0
48.195,-0.027
48.21,-0.055
48.225,-0.08
48.24,-0.064
48.255,-0.068
48.27,-0.063
48.285,-0.005
48.3,-0.027
48.315,-0.044
48.33,-0.05
48.345,-0.046
48.36,-0.035
48.375,-0.013
48.39,-0.028
48.405,-0.008
48.42,0.027
48.435,-0.004
48.45,0.008
48.465,-0.014
48.48,-0.045
48.495,-0.033
48.51,-0.022
48.525,-0.078
48.54,-0.043
48.555,-0.047
48.57,-0.066
48.585,-0.053
48.6,-0.053
48.615,-0.032
48.63,-0.038
48.645,-0.059
48.66,-0.054
48.675,-0.035
48.69,-0.023
48.705,-0.01
48.72,-0.009
48.735,-0.028
48.75,-0.033
48.765,-0.08
48.78,-0.052
48.795,-0.058
48.81,-0.019
48.825,-0.021
48.84,-0.049
48.855,-0.07
48.87,-0.047
48.885,-0.038
48.9,0.023
48.915,-0.002
48.93,0.005
48.945,0.007
48.96,0
48.975,-0.009
48.99,-0.05
49.005,-0.08
49.02,-0.043
49.035,-0.04
49.05,-0.048
49.065,-0.071
49.08,-0.055
49.095,-0.061
49.11,-0.045
49.125,-0.021
49.14,-0.022
49.155,-0.009
49.17,0.032
49.185,-0.007
49.2,-0.038
49.215,-0.007
49.23,-0.024
49.245,-0.041
49.26,0.011
49.275,0.025
49.29,-0.02
49.305,-0.017
49.32,0.02
49.335,0.003
49.35,-0.012
49.365,-0.014
49.38,-0.05
49.395,-0.015
49.41,-0.01
49.425,0.016
49.44,0.012
49.455,-0.025
49.47,-0.08
49.485,-0.043
49.5,0.017
49.515,0.034
49.53,0.021
49.545,-0.012
49.56,-0.007
49.575,0.014
49.59,0.002
49.605,-0.01
49.62,0.004
49.635,-0.036
49.65,-0.048
49.665,-0.03
49.68,-0.02
49.695,-0.026
49.71,-0.071
49.725,-0.08
49.74,-0.051
49.755,-0.048
49.77,-0.063
49.785,-0.02
49.8,0.014
49.815,0.026
49.83,0.012
49.845,0.005
49.86,0.025
49.875,-0.031
49.89,-0.078
49.905,-0.049
49.92,-0.034
49.935,-0.058
49.95,-0.051
49.965,-0.033
49.98,0.016
49.995,-0.007
50.01,-0.024
50.025,-0.066
50.04,-0.036
50.055,-0.037
50.07,-0.048
50.085,-0.012
50.1,0.008
50.115,0.076
50.13,0.051
50.145,-0.012
50.16,0.011
50.175,-0.024
50.19,-0.008
50.205,-0.031
50.22,-0.003
50.235,0.015
50.25,-0.034
50.265,-0.026
50.28,-0.016
50.295,-0.08
50.31,-0.045
50.325,-0.039
50.34,-0.015
50.355,-0.04
50.37,-0.029
50.385,-0.007
50.4,-0.011
50.415,-0.029
50.43,0.018
50.445,0.064
50.46,-0.003
50.475,-0.003
50.49,0.003
50.505,0.024
50.52,0.006
50.535,0.012
50.55,-0.017
50.565,-0.049
50.58,-0.067
50.595,-0.051
50.61,-0.032
50.625,-0.014
50.64,-0.049
50.655,-0.024
50.67,0.011
50.685,0.011
50.7,0.007
50.715,-0.017
50.73,-0.051
50.745,-0.059
50.76,-0.003
50.775,0.014
50.79,-0.018
50.805,-0.011
50.82,-0.011
50.835,0.018
50.85,-0.02
50.865,-0.061
50.88,0.005
50.895,0.009
50.91,-0.08
50.925,-0.065
50.94,-0.031
50.955,0
50.97,0.003
50.985,0.002
51,0.012
51.015,0.014
51.03,0.025
51.045,0.017
51.06,-0.04
51.075,-0.046
51.09,-0.052
51.105,-0.041
51.12,0.016
51.135,0.003
51.15,-0.028
51.165,-0.08
51.18,-0.041
51.195,-0.011
51.21,-0.017
51.225,-0.003
51.24,-0.003
51.255,-0.046
51.27,0.008
51.285,-0.01
51.3,-0.026
51.315,-0.05
51.33,-0.064
51.345,-0.041
51.36,-0.06
51.375,-0.079
51.39,-0.034
51.405,0.003
51.42,0.027
51.435,0.009
51.45,-0.032
51.465,-0.02
51.48,-0.03
51.495,0
51.51,0.01
51.525,-0.028
51.54,-0.039
51.555,-0.062
51.57,-0.057
51.585,-0.028
51.6,0.013
51.615,0.017
51.63,-0.017
51.645,-0.011
51.66,0.003
51.675,-0.031
51.69,-0.046
51.705,0.018
51.72,0.011
51.735,-0.059
51.75,-0.065
51.765,-0.009
51.78,-0.014
51.795,-0.006
51.81,-0.061
51.825,-0.08
51.84,-0.052
51.855,-0.029
51.87,-0.002
51.885,0.017
51.9,0.028
51.915,0.012
51.93,-0.011
51.945,-0.061
51.96,-0.002
51.975,-0.001
51.99,-0.026
52.005,0.007
52.02,0.041
52.035,0.044
52.05,0.047
52.065,0.017
52.08,-0.003
52.095,-0.026
52.11,-0.08
52.125,-0.056
52.14,-0.032
52.155,-0.03
52.17,0.007
52.185,0.034
52.2,-0.004
52.215,-0.016
52.23,-0.013
52.245,-0.013
52.26,-0.038
52.275,0.002
52.29,0.03
52.305,0.016
52.32,0.054
52.335,0.05
52.35,-0.013
52.365,-0.015
52.38,-0.02
52.395,-0.034
52.41,-0.076
52.425,-0.08
52.44,-0.016
52.455,0.05
52.47,0.031
52.485,0.041
52.5,0.012
52.515,0.036
52.53,0.057
52.545,-0.001
52.56,-0.075
52.575,-0.031
52.59,0.02
52.605,0.012
52.62,0.02
52.635,0
52.65,-0.024
52.665,-0.03
52.68,-0.048
52.695,-0.049
52.71,-0.025
52.725,-0.037
52.74,-0.075
52.755,-0.039
52.77,-0.016
52.785,0.008
52.8,0.002
52.815,-0.047
52.83,-0.046
52.845,0.004
52.86,-0.023
52.875,0.001
52.89,0.028
52.905,0.043
52.92,-0.003
52.935,0.017
52.95,-0.006
52.965,0.047
52.98,0.078
52.995,0.028
53.01,0.035
53.025,0.031
53.04,0.055
53.055,0.096
53.07,0.15
53.085,0.194
53.1,0.212
53.115,0.181
53.13,0.224
53.145,0.226
53.16,0.275
53.175,0.29
53.19,0.296
53.205,0.286
53.22,0.311
53.235,0.323
53.25,0.324
53.265,0.403
53.28,0.439
53.295,0.499
53.31,0.495
53.325,0.465
53.34,0.501
53.355,0.514
53.37,0.539
53.385,0.594
53.4,0.587
53.415,0.601
53.43,0.674
53.445,0.707
53.46,0.708
53.475,0.771
53.49,0.76
53.505,0.763
53.52,0.756
53.535,0.752
53.55,0.79
53.565,0.754
53.58,0.716
53.595,0.727
53.61,0.774
53.625,0.751
53.64,0.714
53.655,0.723
53.67,0.752
53.685,0.694
53.7,0.686
53.715,0.668
53.73,0.632
53.745,0.6
53.76,0.562
53.775,0.58
53.79,0.613
53.805,0.54
53.82,0.499
53.835,0.52
53.85,0.498
53.865,0.456
53.88,0.462
53.895,0.439
53.91,0.411
53.925,0.357
53.94,0.292
53.955,0.285
53.97,0.3
53.985,0.272
54,0.253
54.015,0.246
54.03,0.257
54.045,0.22
54.06,0.179
54.075,0.094
54.09,0.099
54.105,0.11
54.12,0.106
54.135,0.104
54.15,0.09
54.165,0.067
54.18,0.07
54.195,0.03
54.21,0.034
54.225,0.049
54.24,0.025
54.255,-0.048
54.27,-0.029
54.285,-0.03
54.3,-0.06
54.315,-0.024
54.33,-0.028
54.345,-0.021
54.36,-0.001
54.375,-0.023
54.39,0
54.405,0.006
54.42,-0.01
54.435,-0.062
54.45,-0.07
54.465,-0.055
54.48,-0.042
54.495,-0.07
54.51,-0.08
54.525,-0.035
54.54,0.011
54.555,0.045
54.57,0.022
54.585,0.021
54.6,-0.011
54.615,-0.069
54.63,-0.062
54.645,-0.046
54.66,-0.018
54.675,-0.016
54.69,-0.056
54.705,-0.056
54.72,-0.031
54.735,-0.009
54.75,0.015
54.765,-0.053
54.78,-0.08
54.795,-0.047
54.81,-0.071
54.825,-0.066
54.84,-0.051
54.855,-0.067
54.87,0.016
54.885,0
54.9,-0.033
54.915,-0.001
54.93,0.007
54.945,-0.01
54.96,0.017
54.975,0.004
54.99,-0.012
55.005,-0.062
55.02,-0.036
55.035,-0.021
55.05,0.024
55.065,-0.016
55.08,-0.035
55.095,-0.013
55.11,0.003
55.125,-0.027
55.14,-0.08
55.155,-0.013
55.17,0.02
55.185,0.004
55.2,0.023
55.215,0.054
55.23,0.043
55.245,0.007
55.26,-0.047
55.275,-0.003
55.29,-0.002
55.305,0.002
55.32,0.008
55.335,-0.01
55.35,-0.046
55.365,-0.026
55.38,0.002
55.395,-0.025
55.41,-0.04
55.425,-0.011
55.44,-0.021
55.455,-0.048
55.47,-0.043
55.485,0.015
55.5,-0.052
55.515,-0.08
55.53,-0.065
55.545,-0.041
55.56,-0.031
55.575,0.003
55.59,-0.003
55.605,-0.006
55.62,-0.013
55.635,-0.049
55.65,-0.036
55.665,-0.049
55.68,-0.08
55.695,-0.056
55.71,-0.026
55.725,-0.039
55.74,-0.027
55.755,-0.08
55.77,-0.057
55.785,-0.026
55.8,-0.014
55.815,0.005
55.83,-0.018
55.845,0.004
55.86,0.005
55.875,-0.013
55.89,-0.05
55.905,-0.021
55.92,-0.013
55.935,0.018
55.95,0.041
55.965,0.034
55.98,0.039
55.995,-0.012
56.01,-0.006
56.025,-0.006
56.04,-0.031
56.055,-0.038
56.07,0.021
56.085,0.036
56.1,0.035
56.115,0.024
56.13,0.032
56.145,0.022
56.16,0.001
56.175,0.018
56.19,0.012
56.205,0.02
56.22,0.03
56.235,0.047
56.25,0.083
56.265,0.086
56.28,0.08
56.295,0.095
56.31,0.082
56.325,0.075
56.34,0.091
56.355,0.11
56.37,0.069
56.385,0.108
56.4,0.137
56.415,0.123
56.43,0.146
56.445,0.182
56.46,0.154
56.475,0.19
56.49,0.259
56.505,0.31
56.52,0.315
56.535,0.29
56.55,0.343
56.565,0.372
56.58,0.394
56.595,0.45
56.61,0.518
56.625,0.561
56.64,0.597
56.655,0.667
56.67,0.7
56.685,0.758
56.7,0.84
56.715,0.928
56.73,0.954
56.745,1.031
56.76,1.116
56.775,1.221
56.79,1.248
56.805,1.384
56.82,1.48
56.835,1.546
56.85,1.566
56.865,1.613
56.88,1.71
56.895,1.813
56.91,1.869
56.925,1.894
56.94,1.958
56.955,2.031
56.97,2.105
56.985,2.143
57,2.209
57.015,2.243
57.03,2.275
57.045,2.333
57.06,2.408
57.075,2.403
57.09,2.396
57.105,2.41
57.12,2.391
57.135,2.408
57.15,2.403
57.165,2.349
57.18,2.307
57.195,2.337
57.21,2.309
57.225,2.241
57.24,2.221
57.255,2.191
57.27,2.162
57.285,2.064
57.3,1.993
57.315,1.978
57.33,1.915
57.345,1.852
57.36,1.741
57.375,1.706
57.39,1.672
57.405,1.587
57.42,1.519
57.435,1.461
57.45,1.389
57.465,1.302
57.48,1.257
57.495,1.22
57.51,1.101
57.525,1.059
57.54,1.006
57.555,0.881
57.57,0.781
57.585,0.77
57.6,0.734
57.615,0.689
57.63,0.624
57.645,0.593
57.66,0.567
57.675,0.482
57.69,0.457
57.705,0.396
57.72,0.347
57.735,0.303
57.75,0.261
57.765,0.267
57.78,0.242
57.795,0.182
57.81,0.15
57.825,0.141
57.84,0.094
57.855,0.106
57.87,0.1
57.885,0.085
57.9,0.054
57.915,0.025
57.93,0.021
57.945,0.007
57.96,0.036
57.975,0.05
57.99,0
58.005,-0.071
58.02,-0.035
58.035,0.004
58.05,-0.004
58.065,-0.039
58.08,-0.044
58.095,-0.005
58.11,0.03
58.125,-0.021
58.14,-0.08
58.155,-0.065
58.17,-0.005
58.185,0.017
58.2,0.007
58.215,0.028
58.23,0.006
58.245,-0.04
58.26,0.014
58.275,0.017
58.29,-0.015
58.305,-0.042
58.32,0.008
58.335,0.023
58.35,-0.007
58.365,-0.043
58.38,-0.01
58.395,0.039
58.41,0.007
58.425,0.005
58.44,-0.01
58.455,-0.034
58.47,-0.026
58.485,-0.026
58.5,-0.031
58.515,-0.026
58.53,-0.047
58.545,-0.036
58.56,-0.034
58.575,-0.029
58.59,-0.02
58.605,-0.006
58.62,0.027
58.635,0.047
58.65,0.01
58.665,-0.079
58.68,-0.067
58.695,-0.003
58.71,-0.008
58.725,-0.041
58.74,0.003
58.755,-0.004
58.77,0.016
58.785,-0.011
58.8,-0.034
58.815,-0.054
58.83,-0.079
58.845,-0.029
58.86,0.028
58.875,-0.029
58.89,-0.045
58.905,-0.025
58.92,-0.057
58.935,-0.042
58.95,0.012
58.965,0.016
58.98,-0.045
58.995,-0.045
59.01,-0.049
59.025,-0.064
59.04,-0.012
59.055,-0.035
59.07,-0.05
59.085,-0.07
59.1,-0.053
59.115,-0.019
59.13,-0.04
59.145,-0.023
59.16,-0.025
59.175,-0.066
59.19,-0.077
59.205,-0.075
59.22,-0.066
59.235,-0.012
59.25,0.016
59.265,0.01
59.28,-0.044
59.295,-0.042
59.31,-0.056
59.325,-0.062
59.34,-0.05
59.355,-0.043
59.37,-0.033
59.385,-0.047
59.4,-0.03
59.415,-0.023
59.43,-0.04
59.445,-0.068
59.46,-0.053
59.475,-0.05
59.49,-0.036
59.505,-0.064
59.52,-0.037
59.535,-0.038
59.55,-0.011
59.565,0.006
59.58,-0.029
59.595,-0.034
59.61,-0.009
59.625,-0.038
59.64,-0.073
59.655,-0.045
59.67,-0.041
59.685,-0.068
59.7,-0.079
59.715,-0.058
59.73,-0.052
59.745,-0.05
59.76,-0.052
59.775,-0.016
59.79,-0.01
59.805,-0.025
59.82,-0.031
59.835,-0.01
59.85,-0.026
59.865,-0.034
59.88,-0.02
59.895,-0.031
59.91,-0.059
59.925,-0.042
59.94,-0.035
59.955,-0.049
59.97,0.001
59.985,0.074
60,0.048
60.015,-0.019
60.03,-0.002
60.045,0.006
60.06,-0.025
60.075,-0.017
60.09,0.004
60.105,-0.009
60.12,0.001
60.135,0.001
60.15,-0.002
60.165,-0.001
60.18,-0.007
60.195,-0.067
60.21,-0.079
60.225,-0.02
60.24,0
60.255,0.015
60.27,0.014
60.285,-0.026
60.3,-0.056
60.315,-0.016
60.33,0.017
60.345,0.005
60.36,-0.015
60.375,-0.042
60.39,0.017
60.405,0.02
60.42,0.005
60.435,-0.001
60.45,0.007
60.465,-0.014
60.48,0.007
60.495,0.042
60.51,-0.022
60.525,-0.044
60.54,-0.046
60.555,-0.04
60.57,0.027
60.585,0.025
60.6,0.002
60.615,0.007
60.63,0.011
60.645,-0.005
60.66,0.006
60.675,0.011
60.69,0.024
60.705,0.045
60.72,0.032
60.735,0.045
60.75,0.017
60.765,-0.009
60.78,-0.004
60.795,0.017
60.81,0.013
60.825,0.004
60.84,-0.007
60.855,0
60.87,0.038
60.885,-0.01
60.9,-0.05
60.915,-0.079
60.93,-0.076
60.945,-0.072
60.96,-0.031
60.975,-0.005
60.99,0.001
61.005,0.024
61.02,-0.015
61.035,-0.033
61.05,-0.061
61.065,-0.054
61.08,-0.035
61.095,-0.064
61.11,-0.074
61.125,-0.033
61.14,-0.016
61.155,0.026
61.17,0.003
61.185,-0.017
61.2,-0.026
61.215,-0.062
61.23,-0.064
61.245,-0.026
61.26,-0.068
61.275,-0.075
61.29,-0.022
61.305,-0.011
61.32,-0.053
61.335,-0.036
61.35,-0.016
61.365,-0.049
61.38,-0.029
61.395,-0.033
61.41,-0.025
61.425,0.03
61.44,-0.052
61.455,-0.042
61.47,0.01
61.485,-0.061
61.5,-0.039
61.515,-0.009
61.53,-0.028
61.545,-0.044
61.56,-0.02
61.575,-0.049
61.59,-0.051
61.605,-0.061
61.62,-0.055
61.635,-0.059
61.65,-0.015
61.665,-0.017
61.68,-0.053
61.695,-0.043
61.71,-0.017
61.725,-0.072
61.74,-0.075
61.755,-0.052
61.77,-0.033
61.785,0.024
61.8,0.044
61.815,0.028
61.83,0.012
61.845,-0.011
61.86,0.014
61.875,0.063
61.89,0.04
61.905,0.004
61.92,0.027
61.935,0.062
61.95,0.082
61.965,0.04
61.98,0.095
61.995,0.156
62.01,0.198
62.025,0.205
62.04,0.17
62.055,0.194
62.07,0.248
62.085,0.297
62.1,0.371
62.115,0.379
62.13,0.379
62.145,0.465
62.16,0.517
62.175,0.589
62.19,0.625
62.205,0.663
62.22,0.696
62.235,0.809
62.25,0.897
62.265,0.996
62.28,1.059
62.295,1.16
62.31,1.293
62.325,1.317
62.34,1.429
62.355,1.513
62.37,1.625
62.385,1.711
62.4,1.774
62.415,1.867
62.43,1.973
62.445,2.137
62.46,2.257
62.475,2.344
62.49,2.439
62.505,2.53
62.52,2.673
62.535,2.715
62.55,2.787
62.565,2.889
62.58,2.946
62.595,2.946
62.61,3.077
62.625,3.154
62.64,3.167
62.655,3.208
62.67,3.232
62.685,3.245
62.7,3.253
62.715,3.248
62.73,3.254
62.745,3.247
62.76,3.235
62.775,3.212
62.79,3.206
62.805,3.2
62.82,3.168
62.835,3.125
62.85,3.111
62.865,3.01
62.88,2.884
62.895,2.887
62.91,2.787
62.925,2.704
62.94,2.661
62.955,2.627
62.97,2.514
62.985,2.415
63,2.353
63.015,2.278
63.03,2.229
63.045,2.115
63.06,1.99
63.075,1.9
63.09,1.818
63.105,1.727
63.12,1.618
63.135,1.518
63.15,1.484
63.165,1.408
63.18,1.334
63.195,1.235
63.21,1.158
63.225,1.066
63.24,1.034
63.255,0.975
63.27,0.891
63.285,0.85
63.3,0.748
63.315,0.726
63.33,0.709
63.345,0.6
63.36,0.522
63.375,0.448
63.39,0.458
63.405,0.438
63.42,0.342
63.435,0.316
63.45,0.277
63.465,0.232
63.48,0.24
63.495,0.235
63.51,0.19
63.525,0.142
63.54,0.129
63.555,0.113
63.57,0.097
63.585,0.009
63.6,0
63.615,-0.003
63.63,0.016
63.645,0.017
63.66,0.039
63.675,0.052
63.69,0.006
63.705,-0.026
63.72,-0.03
63.735,-0.008
63.75,0.006
63.765,0.002
63.78,0.021
63.795,-0.036
63.81,-0.047
63.825,-0.039
63.84,0.001
63.855,-0.007
63.87,-0.045
63.885,-0.054
63.9,-0.079
63.915,-0.04
63.93,-0.044
63.945,-0.078
63.96,-0.067
63.975,-0.04
63.99,-0.069
64.005,-0.061
64.02,-0.038
64.035,-0.048
64.05,-0.043
64.065,-0.011
64.08,0.008
64.095,-0.068
64.11,-0.059
64.125,-0.036
64.14,-0.059
64.155,-0.048
64.17,-0.033
64.185,-0.053
64.2,-0.07
64.215,-0.02
64.23,-0.022
64.245,-0.017
64.26,-0.069
64.275,-0.049
64.29,-0.002
64.305,-0.05
64.32,-0.001
64.335,-0.006
64.35,-0.031
64.365,-0.047
64.38,-0.079
64.395,-0.078
64.41,-0.02
64.425,-0.021
64.44,-0.032
64.455,0.021
64.47,-0.018
64.485,-0.019
64.5,-0.005
64.515,-0.002
64.53,-0.003
64.545,-0.015
64.56,-0.031
64.575,0.001
64.59,-0.045
64.605,-0.036
64.62,-0.013
64.635,0
64.65,-0.054
64.665,-0.054
64.68,-0.027
64.695,-0.052
64.71,-0.03
64.725,-0.002
64.74,-0.018
64.755,-0.04
64.77,-0.026
64.785,-0.018
64.8,-0.079
64.815,-0.076
64.83,-0.053
64.845,-0.029
64.86,-0.021
64.875,-0.009
64.89,0.006
64.905,-0.012
64.92,-0.035
64.935,-0.055
64.95,-0.044
64.965,-0.059
64.98,-0.071
64.995,-0.032
65.01,-0.052
65.025,-0.057
65.04,-0.071
65.055,-0.066
65.07,-0.04
65.085,-0.036
65.1,-0.04
65.115,-0.029
65.13,-0.052
65.145,-0.005
65.16,0.018
65.175,-0.079
65.19,-0.079
65.205,-0.009
65.22,-0.02
65.235,-0.048
65.25,-0.059
65.265,-0.008
65.28,0.036
65.295,-0.015
65.31,-0.062
65.325,0.005
65.34,0.007
65.355,-0.044
65.37,-0.012
65.385,-0.019
65.4,-0.019
65.415,-0.017
65.43,-0.039
65.445,-0.067
65.46,-0.053
65.475,-0.029
65.49,-0.024
65.505,-0.054
65.52,0.002
65.535,0.021
65.55,-0.04
65.565,-0.05
65.58,0.016
65.595,-0.002
65.61,-0.058
65.625,-0.029
65.64,0.001
65.655,-0.056
65.67,-0.061
65.685,-0.036
65.7,0.002
65.715,0.009
65.73,-0.021
65.745,-0.031
65.76,-0.042
65.775,-0.034
65.79,0.017
65.805,0.011
65.82,-0.016
65.835,-0.024
65.85,-0.033
65.865,-0.046
65.88,-0.03
65.895,-0.012
65.91,-0.013
65.925,-0.065
65.94,-0.033
65.955,-0.016
65.97,-0.025
65.985,-0.03
66,-0.005
66.015,-0.039
66.03,0.004
66.045,0.016
66.06,0.02
66.075,-0.04
66.09,-0.014
66.105,-0.014
66.12,-0.041
66.135,-0.012
66.15,0
66.165,-0.01
66.18,0.001
66.195,0.003
66.21,-0.001
66.225,-0.054
66.24,-0.079
66.255,-0.045
66.27,-0.028
66.285,-0.036
66.3,0
66.315,0.03
66.33,0.021
66.345,0.008
66.36,-0.007
66.375,-0.046
66.39,-0.061
66.405,-0.041
66.42,-0.043
66.435,0.025
66.45,0.035
66.465,0.005
66.48,0.016
66.495,-0.019
66.51,-0.041
66.525,-0.006
66.54,0.012
66.555,0.02
66.57,-0.048
66.585,-0.051
66.6,-0.025
66.615,-0.023
66.63,-0.046
66.645,0
66.66,-0.045
66.675,-0.079
66.69,-0.023
66.705,-0.029
66.72,-0.027
66.735,-0.032
66.75,-0.027
66.765,-0.07
66.78,-0.055
66.795,-0.005
66.81,0.006
66.825,-0.02
66.84,-0.003
66.855,0.004
66.87,-0.051
66.885,-0.036
66.9,-0.01
66.915,0.007
66.93,0.009
66.945,-0.038
66.96,-0.079
66.975,-0.032
66.99,-0.026
67.005,-0.005
67.02,-0.009
67.035,-0.061
67.05,0.003
67.065,0.01
67.08,-0.031
67.095,-0.033
67.11,-0.049
67.125,-0.036
67.14,0.022
67.155,-0.019
67.17,-0.049
67.185,-0.022
67.2,0.005
67.215,-0.011
67.23,-0.015
67.245,-0.079
67.26,-0.05
67.275,-0.01
67.29,-0.01
67.305,-0.01
67.32,-0.003
67.335,-0.01
67.35,-0.068
67.365,-0.06
67.38,-0.022
67.395,-0.028
67.41,-0.01
67.425,-0.04
67.44,-0.066
67.455,-0.031
67.47,-0.002
67.485,-0.04
67.5,-0.056
67.515,-0.038
67.53,-0.033
67.545,-0.029
67.56,-0.002
67.575,-0.035
67.59,-0.032
67.605,0.026
67.62,-0.029
67.635,-0.063
67.65,-0.031
67.665,-0.044
67.68,-0.042
67.695,-0.014
67.71,0.028
67.725,0.016
67.74,-0.055
67.755,-0.079
67.77,-0.054
67.785,-0.029
67.8,-0.054
67.815,-0.073
67.83,-0.069
67.845,-0.071
67.86,-0.046
67.875,-0.023
67.89,-0.004
67.905,-0.024
67.92,-0.037
67.935,-0.032
67.95,-0.051
67.965,-0.029
67.98,0.006
67.995,-0.069
68.01,-0.071
68.025,0.004
68.04,0.009
68.055,0.016
68.07,0.008
68.085,-0.017
68.1,-0.044
68.115,-0.019
68.13,-0.01
68.145,-0.032
68.16,-0.028
68.175,-0.032
68.19,-0.04
68.205,-0.01
68.22,-0.009
68.235,-0.019
68.25,-0.005
68.265,-0.049
68.28,-0.048
68.295,-0.009
68.31,-0.046
68.325,-0.066
68.34,-0.014
68.355,-0.036
68.37,-0.079
68.385,-0.073
68.4,-0.017
68.415,-0.022
68.43,-0.029
68.445,0.021
68.46,-0.023
68.475,-0.037
68.49,-0.019
68.505,-0.008
68.52,0.02
68.535,-0.027
68.55,-0.019
68.565,-0.014
68.58,-0.032
68.595,0.019
68.61,0.052
68.625,-0.02
68.64,-0.018
68.655,-0.034
68.67,-0.032
68.685,-0.055
68.7,-0.016
68.715,-0.034
68.73,-0.041
68.745,-0.018
68.76,-0.011
68.775,0.019
68.79,0.001
68.805,-0.039
68.82,-0.055
68.835,-0.017
68.85,-0.012
68.865,-0.017
68.88,0.049
68.895,0.034
68.91,-0.002
68.925,-0.024
68.94,0.002
68.955,0.039
68.97,0.038
68.985,0.021
69,-0.006
69.015,0.002
69.03,0.005
69.045,0.004
69.06,-0.006
69.075,0.034
69.09,0.032
69.105,0.024
69.12,0.006
69.135,-0.01
69.15,-0.01
69.165,0.008
69.18,0.024
69.195,0.017
69.21,0.021
69.225,-0.017
69.24,-0.007
69.255,0.063
69.27,0.042
69.285,-0.007
69.3,-0.003
69.315,0.034
69.33,0.064
69.345,0.017
69.36,0.004
69.375,0.009
69.39,0.033
69.405,0.061
69.42,0.073
69.435,0.062
69.45,0.023
69.465,0.016
69.48,-0.012
69.495,0.035
69.51,0.031
69.525,0.026
69.54,0.053
69.555,0.049
69.57,0.027
69.585,0.039
69.6,0.061
69.615,0.086
69.63,0.078
69.645,0.031
69.66,0.043
69.675,0.086
69.69,0.063
69.705,0.046
69.72,0.062
69.735,0.066
69.75,0.11
69.765,0.15
69.78,0.163
69.795,0.1
69.81,0.062
69.825,0.141
69.84,0.069
69.855,0.045
69.87,0.077
69.885,0.065
69.9,0.086
69.915,0.047
69.93,0.097
69.945,0.165
69.96,0.158
69.975,0.137
69.99,0.086
70.005,0.097
70.02,0.079
70.035,0.099
70.05,0.145
70.065,0.118
70.08,0.127
70.095,0.146
70.11,0.137
70.125,0.144
70.14,0.161
70.155,0.21
70.17,0.144
70.185,0.132
70.2,0.165
70.215,0.19
70.23,0.2
70.245,0.21
70.26,0.224
70.275,0.256
70.29,0.24
70.305,0.218
70.32,0.217
70.335,0.232
70.35,0.256
70.365,0.312
70.38,0.253
70.395,0.212
70.41,0.216
70.425,0.219
70.44,0.244
70.455,0.26
70.47,0.269
70.485,0.313
70.5,0.297
70.515,0.269
70.53,0.307
70.545,0.321
70.56,0.341
70.575,0.342
70.59,0.344
70.605,0.331
70.62,0.349
70.635,0.341
70.65,0.323
70.665,0.394
70.68,0.404
70.695,0.457
70.71,0.456
70.725,0.395
70.74,0.362
70.755,0.393
70.77,0.454
70.785,0.518
70.8,0.481
70.815,0.488
70.83,0.476
70.845,0.46
70.86,0.554
70.875,0.58
70.89,0.539
70.905,0.549
70.92,0.6
70.935,0.578
70.95,0.607
70.965,0.61
70.98,0.607
70.995,0.626
71.01,0.676
71.025,0.702
71.04,0.681
71.055,0.71
71.07,0.67
71.085,0.648
71.1,0.655
71.115,0.686
71.13,0.67
71.145,0.669
71.16,0.712
71.175,0.69
71.19,0.693
71.205,0.7
71.22,0.712
71.235,0.737
71.25,0.721
71.265,0.758
71.28,0.749
71.295,0.689
71.31,0.727
71.325,0.754
71.34,0.751
71.355,0.762
71.37,0.751
71.385,0.729
71.4,0.783
71.415,0.766
71.43,0.775
71.445,0.753
71.46,0.706
71.475,0.693
71.49,0.721
71.505,0.731
71.52,0.7
71.535,0.749
71.55,0.766
71.565,0.734
71.58,0.742
71.595,0.724
71.61,0.701
71.625,0.715
71.64,0.76
71.655,0.741
71.67,0.729
71.685,0.709
71.7,0.714
71.715,0.794
71.73,0.778
71.745,0.791
71.76,0.817
71.775,0.817
71.79,0.783
71.805,0.754
71.82,0.774
71.835,0.793
71.85,0.767
71.865,0.761
71.88,0.788
71.895,0.782
71.91,0.779
71.925,0.806
71.94,0.772
71.955,0.785
71.97,0.774
71.985,0.79
72,0.819
72.015,0.805
72.03,0.815
72.045,0.857
72.06,0.903
72.075,0.891
72.09,0.83
72.105,0.803
72.12,0.896
72.135,0.898
72.15,0.88
72.165,0.902
72.18,0.895
72.195,0.87
72.21,0.879
72.225,0.947
72.24,0.934
72.255,0.93
72.27,0.923
72.285,0.965
72.3,0.957
72.315,0.897
72.33,0.91
72.345,0.963
72.36,0.96
72.375,0.983
72.39,0.977
72.405,1.008
72.42,0.983
72.435,0.966
72.45,0.994
72.465,0.999
72.48,1.028
72.495,1.021
72.51,1.019
72.525,1.033
72.54,1.09
72.555,1.089
72.57,1.061
72.585,1.078
72.6,1.135
72.615,1.121
72.63,1.114
72.645,1.112
72.66,1.108
72.675,1.147
72.69,1.223
72.705,1.179
72.72,1.173
72.735,1.152
72.75,1.133
72.765,1.144
72.78,1.176
72.795,1.188
72.81,1.222
72.825,1.232
72.84,1.253
72.855,1.27
72.87,1.247
72.885,1.24
72.9,1.238
72.915,1.25
72.93,1.278
72.945,1.316
72.96,1.322
72.975,1.33
72.99,1.307
73.005,1.309
73.02,1.323
73.035,1.347
73.05,1.354
73.065,1.337
73.08,1.348
73.095,1.388
73.11,1.4
73.125,1.387
73.14,1.409
73.155,1.432
73.17,1.462
73.185,1.457
73.2,1.459
73.215,1.524
73.23,1.455
73.245,1.478
73.26,1.474
73.275,1.46
73.29,1.545
73.305,1.516
73.32,1.483
73.335,1.546
73.35,1.561
73.365,1.58
73.38,1.631
73.395,1.582
73.41,1.564
73.425,1.602
73.44,1.62
73.455,1.639
73.47,1.625
73.485,1.656
73.5,1.707
73.515,1.721
73.53,1.752
73.545,1.752
73.56,1.731
73.575,1.773
73.59,1.799
73.605,1.849
73.62,1.843
73.635,1.834
73.65,1.914
73.665,1.912
73.68,1.925
73.695,1.964
73.71,1.962
73.725,1.988
73.74,1.998
73.755,2.004
73.77,2.055
73.785,2.061
73.8,2.096
73.815,2.137
73.83,2.167
73.845,2.177
73.86,2.212
73.875,2.217
73.89,2.279
73.905,2.331
73.92,2.352
73.935,2.382
73.95,2.373
73.965,2.366
73.98,2.374
73.995,2.424
74.01,2.436
74.025,2.462
74.04,2.496
74.055,2.52
74.07,2.52
74.085,2.535
74.1,2.589
74.115,2.642
74.13,2.664
74.145,2.647
74.16,2.68
74.175,2.666
74.19,2.666
74.205,2.677
74.22,2.692
74.235,2.77
74.25,2.786
74.265,2.753
74.28,2.782
74.295,2.833
74.31,2.794
74.325,2.773
74.34,2.789
74.355,2.833
74.37,2.809
74.385,2.777
74.4,2.819
74.415,2.79
74.43,2.81
74.445,2.819
74.46,2.814
74.475,2.824
74.49,2.779
74.505,2.81
74.52,2.809
74.535,2.791
74.55,2.86
74.565,2.862
74.58,2.8
74.595,2.793
74.61,2.794
74.625,2.819
74.64,2.861
74.655,2.869
74.67,2.824
74.685,2.841
74.7,2.846
74.715,2.816
74.73,2.846
74.745,2.891
74.76,2.875
74.775,2.86
74.79,2.861
74.805,2.897
74.82,2.926
74.835,2.941
74.85,2.894
74.865,2.921
74.88,2.975
74.895,2.955
74.91,2.924
74.925,2.917
74.94,2.953
74.955,3.003
74.97,2.97
74.985,2.975
75,2.883
75.015,2.795
75.03,2.706
75.045,2.591
75.06,2.567
75.075,2.526
75.09,2.458
75.105,2.298
75.12,2.245
75.135,2.293
75.15,2.328
75.165,2.321
75.18,2.256
75.195,2.206
75.21,2.161
75.225,2.186
75.24,2.035
75.255,2.029
75.27,2.081
75.285,2.071
75.3,2.024
75.315,1.906
75.33,1.771
75.345,0
