24.99,28.778
25.005,28.161
25.02,27.268
25.035,26.08
25.05,27.83
25.065,29.736
25.08,28.724
25.095,26.794
25.11,27.031
25.125,27.419
25.14,27.319
25.155,29.067
25.17,27.745
25.185,27.745
25.2,28.218
25.215,27.417
25.23,27.982
25.245,27.876
25.26,27.153
25.275,26.711
25.29,26.715
25.305,26.965
25.32,27.646
25.335,27.274
25.35,27.939
25.365,27.83
25.38,27.102
25.395,27.184
25.41,27.278
25.425,27.211
25.44,27.176
25.455,27.476
25.47,26.841
25.485,27.506
25.5,27.273
25.515,26.391
25.53,27.146
25.545,27.733
25.56,27.048
25.575,27.099
25.59,26.776
25.605,27.438
25.62,27.944
25.635,27.863
25.65,27.854
25.665,28.125
25.68,27.742
25.695,27.332
25.71,27.417
25.725,27.67
25.74,27.665
25.755,27.782
25.77,27.498
25.785,27.419
25.8,27.133
25.815,27.363
25.83,27.229
25.845,26.561
25.86,27.403
25.875,28.189
25.89,27.721
25.905,26.899
25.92,26.819
25.935,27.121
25.95,27.314
25.965,27.207
25.98,27.534
25.995,27.233
26.01,26.899
26.025,27.492
26.04,27.382
26.055,27.164
26.07,27.23
26.085,27.361
26.1,27.652
26.115,27.892
26.13,27.193
26.145,26.231
26.16,26.671
26.175,27.165
26.19,26.747
26.205,27.098
26.22,27.495
26.235,27.601
26.25,27.191
26.265,26.935
26.28,27.014
26.295,27.393
26.31,26.764
26.325,26.57
26.34,26.815
26.355,26.889
26.37,27.181
26.385,26.986
26.4,27.426
26.415,27.278
26.43,26.995
26.445,27.003
26.46,26.571
26.475,26.665
26.49,26.982
26.505,26.894
26.52,27.437
26.535,26.963
26.55,26.789
26.565,27.273
26.58,27.757
26.595,27.592
26.61,27.591
26.625,27.612
26.64,26.939
26.655,26.939
26.67,27.152
26.685,26.934
26.7,26.737
26.715,26.391
26.73,26.223
26.745,26.911
26.76,26.863
26.775,26.846
26.79,26.275
26.805,26.682
26.82,26.76
26.835,26.363
26.85,26.397
26.865,26.56
26.88,27.04
26.895,27.051
26.91,26.864
26.925,26.746
26.94,26.307
26.955,26.323
26.97,27.116
26.985,27.293
27,27.172
27.015,27.218
27.03,27.186
27.045,26.884
27.06,27.11
27.075,27.645
27.09,27.994
27.105,27.356
27.12,26.753
27.135,26.337
27.15,26.535
27.165,26.915
27.18,26.676
27.195,26.344
27.21,26.543
27.225,25.918
27.24,26.331
27.255,26.681
27.27,26.629
27.285,26.915
27.3,27.111
27.315,26.728
27.33,26.72
27.345,26.631
27.36,26.74
27.375,26.862
27.39,26.949
27.405,27.003
27.42,27.076
27.435,27.611
27.45,26.8
27.465,25.87
27.48,26.291
27.495,26.753
27.51,26.215
27.525,26.475
27.54,26.602
27.555,27.085
27.57,26.783
27.585,26.63
27.6,26.537
27.615,26.6
27.63,26.791
27.645,26.904
27.66,26.368
27.675,26.41
27.69,26.488
27.705,26.532
27.72,26.95
27.735,27.26
27.75,27.453
27.765,27.408
27.78,26.975
27.795,26.984
27.81,27.042
27.825,27.035
27.84,26.561
27.855,26.877
27.87,26.884
27.885,26.798
27.9,26.646
27.915,26.656
27.93,26.708
27.945,26.547
27.96,26.472
27.975,26.315
27.99,27.041
28.005,27.373
28.02,26.661
28.035,26.271
28.05,26.597
28.065,26.569
28.08,26.567
28.095,26.809
28.11,26.541
28.125,26.643
28.14,26.459
28.155,26.439
28.17,26.519
28.185,26.74
28.2,27.191
28.215,26.7
28.23,26.828
28.245,26.4
28.26,26.573
28.275,26.597
28.29,26.501
28.305,26.616
28.32,26.522
28.335,26.529
28.35,26.521
28.365,26.471
28.38,26.524
28.395,26.043
28.41,26.512
28.425,26.916
28.44,26.826
28.455,26.881
28.47,27.016
28.485,26.539
28.5,26.537
28.515,26.588
28.53,26.474
28.545,26.674
28.56,26.708
28.575,26.644
28.59,26.593
28.605,27.038
28.62,26.706
28.635,26.665
28.65,26.437
28.665,26.212
28.68,26.466
28.695,26.822
28.71,26.325
28.725,26.08
28.74,26.381
28.755,26.514
28.77,26.185
28.785,26.497
28.8,26.565
28.815,26.65
28.83,26.648
28.845,26.768
28.86,26.337
28.875,26.623
28.89,27.069
28.905,27.173
28.92,27.037
28.935,26.542
28.95,26.586
28.965,26.816
28.98,26.935
28.995,26.919
29.01,26.756
29.025,26.814
29.04,27.009
29.055,26.886
29.07,27
29.085,26.848
29.1,26.697
29.115,27.259
29.13,26.602
29.145,26.407
29.16,26.565
29.175,26.896
29.19,27.046
29.205,27.044
29.22,26.801
29.235,26.808
29.25,26.475
29.265,25.985
29.28,26.207
29.295,26.328
29.31,26.332
29.325,26.935
29.34,27.042
29.355,26.908
29.37,26.982
29.385,27.042
29.4,26.524
29.415,27.089
29.43,27.614
29.445,27.411
29.46,27.064
29.475,26.485
29.49,26.282
29.505,27.03
29.52,27.224
29.535,26.902
29.55,26.623
29.565,26.684
29.58,27.512
29.595,27.212
29.61,26.93
29.625,27.228
29.64,27.418
29.655,27.477
29.67,27.493
29.685,27.266
29.7,27.715
29.715,27.624
29.73,27.28
29.745,27.481
29.76,27.498
29.775,27.413
29.79,27.109
29.805,27.782
29.82,27.959
29.835,28.011
29.85,28.447
29.865,27.855
29.88,27.918
29.895,28.518
29.91,29.022
29.925,29.083
29.94,28.779
29.955,29.525
29.97,29.372
29.985,29.085
30,29.162
30.015,29.71
30.03,29.44
30.045,29.281
30.06,29.49
30.075,29.437
30.09,29.561
30.105,29.589
30.12,29.866
30.135,30.311
30.15,29.693
30.165,29.076
30.18,29.44
30.195,29.991
30.21,30.097
30.225,29.674
30.24,29.486
30.255,30.009
30.27,29.361
30.285,28.781
30.3,28.946
30.315,29.638
30.33,29.776
30.345,29.036
30.36,28.842
30.375,29.024
30.39,29.213
30.405,28.851
30.42,28.239
30.435,28.202
30.45,28.253
30.465,27.929
30.48,27.998
30.495,28
30.51,27.838
30.525,28.069
30.54,27.776
30.555,27.797
30.57,28.224
30.585,28.326
30.6,27.814
30.615,27.439
30.63,27.389
30.645,27.141
30.66,27.239
30.675,27.113
30.69,26.773
30.705,26.954
30.72,26.854
30.735,26.87
30.75,27.319
30.765,27.406
30.78,27.006
30.795,26.978
30.81,27.199
30.825,27.093
30.84,26.905
30.855,27.368
30.87,27.079
30.885,27.291
30.9,27.362
30.915,26.509
30.93,26.851
30.945,26.797
30.96,26.708
30.975,26.421
30.99,26.571
31.005,27.093
31.02,26.885
31.035,26.366
31.05,26.122
31.065,26.742
31.08,26.981
31.095,26.915
31.11,26.412
31.125,26.389
31.14,26.668
31.155,26.765
31.17,26.695
31.185,26.497
31.2,26.416
31.215,26.679
31.23,26.447
31.245,26.622
31.26,26.981
31.275,27.041
31.29,26.966
31.305,26.675
31.32,26.92
31.335,27.05
31.35,27.234
31.365,26.908
31.38,26.409
31.395,26.554
31.41,26.641
31.425,26.754
31.44,26.794
31.455,26.961
31.47,26.629
31.485,26.364
31.5,26.901
31.515,27.369
31.53,27.23
31.545,26.562
31.56,26.39
31.575,26.586
31.59,27.255
31.605,27.049
31.62,26.777
31.635,26.665
31.65,26.689
31.665,26.621
31.68,26.697
31.695,26.444
31.71,26.323
31.725,26.438
31.74,26.091
31.755,26.072
31.77,26.035
31.785,26.254
31.8,26.171
31.815,26.828
31.83,27.05
31.845,26.5
31.86,26.656
31.875,26.678
31.89,26.814
31.905,26.472
31.92,26.887
31.935,27.217
31.95,26.743
31.965,26.686
31.98,26.348
31.995,26.706
32.01,26.836
32.025,26.695
32.04,26.769
32.055,27.094
32.07,26.704
32.085,27.04
32.1,26.463
32.115,26.94
32.13,27.295
32.145,27.183
32.16,27.076
32.175,26.574
32.19,27.209
32.205,27.285
32.22,27.091
32.235,26.814
32.25,26.337
32.265,26.226
32.28,26.322
32.295,26.37
32.31,26.439
32.325,27.073
32.34,26.626
32.355,26.33
32.37,26.808
32.385,27.02
32.4,26.727
32.415,26.566
32.43,26.462
32.445,26.436
32.46,26.837
32.475,26.857
32.49,27.024
32.505,26.557
32.52,26.558
32.535,26.808
32.55,26.801
32.565,26.467
32.58,26.269
32.595,26.429
32.61,26.574
32.625,26.36
32.64,26.7
32.655,27.068
32.67,27.084
32.685,26.287
32.7,26.191
32.715,26.023
32.73,25.956
32.745,26.12
32.76,26.552
32.775,26.22
32.79,25.946
32.805,26.323
32.82,26.426
32.835,26.389
32.85,26.906
32.865,27.256
32.88,26.951
32.895,26.891
32.91,26.826
32.925,26.18
32.94,26.273
32.955,26.751
32.97,26.501
32.985,26.514
33,26.682
33.015,25.915
33.03,26.728
33.045,26.962
33.06,26.677
33.075,26.475
33.09,26.646
33.105,26.697
33.12,26.56
33.135,27.154
33.15,26.5
33.165,26.203
33.18,26.635
33.195,26.273
33.21,25.928
33.225,26.215
33.24,26.517
33.255,26.435
33.27,26.44
33.285,26.865
33.3,27.117
33.315,27.068
33.33,27.378
33.345,26.949
33.36,26.909
33.375,26.661
33.39,26.34
33.405,26.611
33.42,26.645
33.435,26.903
33.45,27.065
33.465,26.688
33.48,26.235
33.495,26.397
33.51,26.608
33.525,26.667
33.54,26.647
33.555,26.763
33.57,26.804
33.585,26.655
33.6,26.735
33.615,27.089
33.63,27.197
33.645,26.976
33.66,26.768
33.675,26.748
33.69,26.534
33.705,26.362
33.72,26.337
33.735,26.98
33.75,27.063
33.765,26.478
33.78,26.485
33.795,26.892
33.81,26.922
33.825,26.735
33.84,27.102
33.855,27.025
33.87,26.87
33.885,26.55
33.9,26.413
33.915,26.487
33.93,26.668
33.945,26.707
33.96,26.239
33.975,26.31
33.99,26.736
34.005,26.98
34.02,26.394
34.035,26.532
34.05,26.607
34.065,26.319
34.08,26.601
34.095,26.277
34.11,26.702
34.125,26.805
34.14,26.58
34.155,26.343
34.17,26.985
34.185,27.515
34.2,27.23
34.215,26.916
34.23,26.725
34.245,26.542
34.26,27.011
34.275,27.377
34.29,27.461
34.305,26.549
34.32,26.736
34.335,26.4
34.35,26.475
34.365,26.984
34.38,26.741
34.395,26.561
34.41,27.293
34.425,26.883
34.44,26.514
34.455,26.863
34.47,27.039
34.485,27.301
34.5,27.297
34.515,27.073
34.53,26.773
34.545,26.908
34.56,27.64
34.575,27.447
34.59,27.415
34.605,27.509
34.62,27.012
34.635,27.285
34.65,27.488
34.665,27.512
34.68,27.357
34.695,26.826
34.71,26.634
34.725,27.182
34.74,27.379
34.755,27.276
34.77,27.466
34.785,27.59
34.8,27.846
34.815,27.614
34.83,27.496
34.845,27.598
34.86,27.686
34.875,27.829
34.89,27.75
34.905,27.553
34.92,27.817
34.935,27.659
34.95,27.79
34.965,28.085
34.98,28.484
34.995,28.687
35.01,28.855
35.025,28.589
35.04,28.5
35.055,28.629
35.07,28.809
35.085,29.454
35.1,29.909
35.115,30.055
35.13,30.265
35.145,30.967
35.16,31.105
35.175,31.358
35.19,31.608
35.205,32.285
35.22,32.249
35.235,31.55
35.25,32.18
35.265,33.359
35.28,33.846
35.295,33.382
35.31,33.772
35.325,34.076
35.34,34.873
35.355,35.004
35.37,35.036
35.385,35.349
35.4,35.58
35.415,35.431
35.43,35.309
35.445,36.061
35.46,36.265
35.475,36.143
35.49,35.966
35.505,35.953
35.52,35.857
35.535,35.922
35.55,35.611
35.565,35.845
35.58,35.564
35.595,35.306
35.61,35.535
35.625,35.672
35.64,35.453
35.655,35.734
35.67,35.487
35.685,34.75
35.7,34.734
35.715,33.97
35.73,33.599
35.745,33.218
35.76,32.607
35.775,32.199
35.79,32.13
35.805,31.925
35.82,31.9
35.835,31.431
35.85,31.173
35.865,30.369
35.88,30.724
35.895,30.61
35.91,30.64
35.925,30.52
35.94,30.269
35.955,29.809
35.97,29.621
35.985,29.403
36,29.002
36.015,28.389
36.03,28.106
36.045,28.473
36.06,28.347
36.075,28.01
36.09,27.815
36.105,27.88
36.12,28.086
36.135,27.919
36.15,27.222
36.165,26.685
36.18,27.708
36.195,27.607
36.21,27.761
36.225,27.752
36.24,27.581
36.255,26.654
36.27,26.541
36.285,27.539
36.3,27.593
36.315,27.08
36.33,26.911
36.345,27.267
36.36,26.913
36.375,26.889
36.39,26.682
36.405,26.908
36.42,26.416
36.435,26.616
36.45,26.586
36.465,26.986
36.48,27.679
36.495,27.538
36.51,27.297
36.525,27.041
36.54,26.646
36.555,26.954
36.57,26.947
36.585,27.02
36.6,27.025
36.615,26.505
36.63,26.267
36.645,26.887
36.66,26.814
36.675,26.402
36.69,26.638
36.705,26.811
36.72,26.9
36.735,26.903
36.75,27.014
36.765,26.829
36.78,26.836
36.795,26.815
36.81,26.798
36.825,26.555
36.84,26.623
36.855,26.779
36.87,27.294
36.885,27.22
36.9,27.531
36.915,27.208
36.93,26.853
36.945,26.961
36.96,26.864
36.975,26.445
36.99,26.586
37.005,27.225
37.02,27.076
37.035,26.922
37.05,26.772
37.065,26.678
37.08,26.854
37.095,27.273
37.11,27.723
37.125,27.656
37.14,26.815
37.155,26.888
37.17,27.199
37.185,27.187
37.2,26.581
37.215,26.94
37.23,26.841
37.245,26.996
37.26,27.342
37.275,27.013
37.29,26.695
37.305,26.47
37.32,26.669
37.335,26.577
37.35,26.202
37.365,26.281
37.38,26.629
37.395,26.956
37.41,26.682
37.425,26.77
37.44,26.536
37.455,26.081
37.47,26.221
37.485,26.371
37.5,26.371
37.515,26.693
37.53,26.849
37.545,26.468
37.56,26.412
37.575,26.65
37.59,26.574
37.605,26.367
37.62,26.802
37.635,26.454
37.65,26.342
37.665,25.917
37.68,25.68
37.695,26.277
37.71,26.159
37.725,25.656
37.74,26.166
37.755,26.263
37.77,26.276
37.785,26.408
37.8,26.548
37.815,26.552
37.83,26.2
37.845,26.124
37.86,26.43
37.875,26.185
37.89,26.084
37.905,26.038
37.92,26.214
37.935,26.423
37.95,26.624
37.965,26.859
37.98,25.832
37.995,26.013
38.01,26.501
38.025,26.664
38.04,26.049
38.055,25.885
38.07,26.824
38.085,26.919
38.1,26.571
38.115,26.307
38.13,26.654
38.145,26.138
38.16,26.134
38.175,26.424
38.19,26.081
38.205,25.863
38.22,25.901
38.235,26.351
38.25,26.249
38.265,26.295
38.28,26.107
38.295,25.944
38.31,25.883
38.325,26.366
38.34,26.315
38.355,26.198
38.37,26.24
38.385,26.12
38.4,26.259
38.415,26.331
38.43,26.548
38.445,26.89
38.46,26.399
38.475,25.881
38.49,26.042
38.505,26.1
38.52,26.426
38.535,26.152
38.55,25.943
38.565,25.922
38.58,26.004
38.595,26.19
38.61,26.231
38.625,26.124
38.64,26.66
38.655,26.951
38.67,26.449
38.685,25.686
38.7,26.434
38.715,26.577
38.73,26.818
38.745,26.48
38.76,26.772
38.775,26.707
38.79,25.874
38.805,25.705
38.82,25.73
38.835,25.857
38.85,25.824
38.865,26.334
38.88,26.656
38.895,26.443
38.91,26.313
38.925,26.456
38.94,26.297
38.955,26.018
38.97,26.3
38.985,25.866
39,25.711
39.015,25.803
39.03,25.925
39.045,26.268
39.06,26.413
39.075,25.877
39.09,25.776
39.105,26.01
39.12,26.401
39.135,26.293
39.15,26.134
39.165,26.165
39.18,26.155
39.195,25.82
39.21,25.731
39.225,26.385
39.24,26.465
39.255,26.426
39.27,26.393
39.285,26.2
39.3,26.251
39.315,25.813
39.33,26.101
39.345,25.899
39.36,25.448
39.375,25.585
39.39,26.481
39.405,26.761
39.42,26.882
39.435,26.614
39.45,25.743
39.465,25.645
39.48,25.952
39.495,25.98
39.51,26.227
39.525,26.345
39.54,26.195
39.555,26.119
39.57,26.456
39.585,26.785
39.6,26.583
39.615,26.226
39.63,26.04
39.645,25.628
39.66,25.669
39.675,25.978
39.69,26.028
39.705,26.093
39.72,26.11
39.735,26.221
39.75,26.116
39.765,26.533
39.78,26.183
39.795,26.242
39.81,26.474
39.825,26.029
39.84,25.545
39.855,25.879
39.87,26.666
39.885,26.712
39.9,26.09
39.915,25.394
39.93,25.457
39.945,26.089
39.96,26.272
39.975,25.94
39.99,26.356
40.005,26.548
40.02,25.89
40.035,25.895
40.05,26.252
40.065,26.025
40.08,25.615
40.095,26.177
40.11,26.366
40.125,26.067
40.14,26.047
40.155,25.844
40.17,26.348
40.185,26.8
40.2,26.616
40.215,26.55
40.23,26.378
40.245,26.117
40.26,25.776
40.275,25.469
40.29,25.762
40.305,25.78
40.32,25.76
40.335,25.977
40.35,26.273
40.365,26.534
40.38,26.422
40.395,25.941
40.41,26.096
40.425,26.376
40.44,26.202
40.455,26.25
40.47,25.662
40.485,25.843
40.5,26.027
40.515,25.976
40.53,25.809
40.545,25.771
40.56,26.346
40.575,26.27
40.59,25.977
40.605,26.045
40.62,26.203
40.635,25.705
40.65,26.219
40.665,26.265
40.68,26.133
40.695,26.15
40.71,26.652
40.725,26.73
40.74,25.996
40.755,25.881
40.77,26.659
40.785,26.684
40.8,26.612
40.815,26.102
40.83,26.016
40.845,26.08
40.86,26.054
40.875,25.992
40.89,26.124
40.905,25.494
40.92,26.117
40.935,26.187
40.95,26.16
40.965,26.22
40.98,26.021
40.995,25.464
41.01,25.714
41.025,26.427
41.04,26.034
41.055,26.002
41.07,26.343
41.085,25.925
41.1,25.998
41.115,25.869
41.13,26.514
41.145,26.938
41.16,26.934
41.175,26.373
41.19,26.115
41.205,25.889
41.22,26.181
41.235,26.137
41.25,26.103
41.265,25.881
41.28,25.897
41.295,26.408
41.31,26.175
41.325,25.662
41.34,26.196
41.355,26.521
41.37,26.355
41.385,26.346
41.4,26.172
41.415,26.038
41.43,26.088
41.445,26.028
41.46,25.496
41.475,25.958
41.49,26.375
41.505,26.418
41.52,26.405
41.535,26.496
41.55,25.855
41.565,25.935
41.58,26.188
41.595,26.219
41.61,25.951
41.625,25.599
41.64,25.772
41.655,25.764
41.67,25.865
41.685,25.998
41.7,25.742
41.715,25.907
41.73,25.973
41.745,25.817
41.76,26.16
41.775,25.482
41.79,25.363
41.805,26.052
41.82,25.97
41.835,26.11
41.85,25.914
41.865,25.808
41.88,26.151
41.895,26.054
41.91,26.069
41.925,26.172
41.94,26.292
41.955,26.438
41.97,26.085
41.985,26.307
42,26.538
42.015,26.401
42.03,26.341
42.045,26.453
42.06,26.317
42.075,25.948
42.09,26.202
42.105,26.033
42.12,26.173
42.135,26.131
42.15,25.805
42.165,25.89
42.18,26.348
42.195,26.59
42.21,26.736
42.225,26.46
42.24,26.563
42.255,26.31
42.27,26.223
42.285,26.362
42.3,26.534
42.315,26.313
42.33,26.039
42.345,25.972
42.36,25.993
42.375,26.221
42.39,26.215
42.405,25.973
42.42,26.35
42.435,26.456
42.45,26.099
42.465,25.823
42.48,26.216
42.495,26.419
42.51,26.093
42.525,26.461
42.54,26.364
42.555,26.116
42.57,26.291
42.585,25.931
42.6,26.172
42.615,26.791
42.63,26.482
42.645,25.716
42.66,26.299
42.675,26.519
42.69,26.511
42.705,26.768
42.72,26.771
42.735,26.804
42.75,26.496
42.765,27.027
42.78,27.168
42.795,27.077
42.81,26.641
42.825,26.904
42.84,26.898
42.855,26.754
42.87,26.497
42.885,27.245
42.9,27.03
42.915,26.652
42.93,27.081
42.945,27.546
42.96,27.671
42.975,27.107
42.99,27.122
43.005,27.427
43.02,27.741
43.035,27.882
43.05,28.005
43.065,28.057
43.08,27.726
43.095,27.374
43.11,27.335
43.125,27.388
43.14,28.007
43.155,27.634
43.17,27.437
43.185,28.374
43.2,28.35
43.215,28.277
43.23,27.57
43.245,27.518
43.26,27.487
43.275,27.479
43.29,27.899
43.305,27.377
43.32,26.945
43.335,27.455
43.35,27.781
43.365,27.558
43.38,27.866
43.395,27.541
43.41,26.987
43.425,26.882
43.44,26.847
43.455,27.106
43.47,26.943
43.485,26.418
43.5,26.226
43.515,26.522
43.53,27.18
43.545,26.782
43.56,26.809
43.575,26.447
43.59,26.066
43.605,26.562
43.62,26.937
43.635,26.792
43.65,26.198
43.665,26.223
43.68,25.837
43.695,26.109
43.71,26.621
43.725,26.531
43.74,26.55
43.755,26.167
43.77,26.274
43.785,25.804
43.8,25.954
43.815,25.746
43.83,25.645
43.845,25.977
43.86,25.574
43.875,26.202
43.89,26.056
43.905,26.061
43.92,26.326
43.935,25.808
43.95,25.319
43.965,25.517
43.98,26.034
43.995,26.318
44.01,25.906
44.025,25.956
44.04,26.119
44.055,26.345
44.07,25.828
44.085,25.527
44.1,26.243
44.115,26.203
44.13,25.807
44.145,26.013
44.16,26.288
44.175,25.902
44.19,25.911
44.205,26.222
44.22,25.787
44.235,26.148
44.25,26.111
44.265,26.025
44.28,26.056
44.295,25.99
44.31,26.05
44.325,25.909
44.34,25.404
44.355,25.552
44.37,26.542
44.385,26.766
44.4,25.98
44.415,25.842
44.43,26.405
44.445,26.411
44.46,26.207
44.475,26.081
44.49,25.682
44.505,25.382
44.52,25.381
44.535,25.967
44.55,25.897
44.565,25.876
44.58,26.187
44.595,26.166
44.61,26.297
44.625,25.855
44.64,25.94
44.655,26.224
44.67,25.871
44.685,25.686
44.7,25.216
44.715,25.215
44.73,25.052
44.745,25.315
44.76,25.593
44.775,25.814
44.79,25.763
44.805,26.159
44.82,26.368
44.835,26.061
44.85,26.419
44.865,26.038
44.88,25.73
44.895,25.692
44.91,26.246
44.925,25.841
44.94,25.765
44.955,26.037
44.97,25.967
44.985,25.138
45,25.606
45.015,25.96
45.03,25.676
45.045,25.441
45.06,25.769
45.075,26.013
45.09,25.994
45.105,25.592
45.12,25.499
45.135,25.478
45.15,25.365
45.165,25.676
45.18,25.557
45.195,25.561
45.21,25.641
45.225,25.601
45.24,25.597
45.255,25.544
45.27,25.901
45.285,25.904
45.3,25.951
45.315,25.555
45.33,25.653
45.345,25.974
45.36,25.885
45.375,25.865
45.39,26.101
45.405,25.853
45.42,25.217
45.435,25.462
45.45,25.545
45.465,25.867
45.48,26.111
45.495,25.607
45.51,25.273
45.525,25.653
45.54,25.382
45.555,25.561
45.57,25.737
45.585,26.017
45.6,26.069
45.615,25.717
45.63,25.611
45.645,25.679
45.66,25.896
45.675,25.827
45.69,25.517
45.705,25.36
45.72,25.192
45.735,25.014
45.75,25.342
45.765,25.902
45.78,25.88
45.795,25.601
45.81,25.725
45.825,25.602
45.84,25.44
45.855,25.516
45.87,25.732
45.885,25.884
45.9,25.626
45.915,25.89
45.93,26.157
45.945,25.886
45.96,25.446
45.975,25.248
45.99,25.542
46.005,25.513
46.02,25.572
46.035,25.423
46.05,25.194
46.065,25.786
46.08,25.685
46.095,25.454
46.11,26.104
46.125,26.397
46.14,25.741
46.155,25.198
46.17,25.347
46.185,25.392
46.2,25.847
46.215,25.839
46.23,25.67
46.245,25.75
46.26,25.76
46.275,25.832
46.29,25.596
46.305,25.022
46.32,25.533
46.335,25.965
46.35,25.726
46.365,25.632
46.38,25.847
46.395,25.461
46.41,25.684
46.425,26.019
46.44,26.048
46.455,25.852
46.47,25.882
46.485,25.894
46.5,25.798
46.515,26.004
46.53,25.879
46.545,25.572
46.56,25.99
46.575,26.163
46.59,25.842
46.605,25.712
46.62,25.449
46.635,25.483
46.65,25.592
46.665,25.688
46.68,25.495
46.695,25.671
46.71,25.525
46.725,25.434
46.74,25.846
46.755,25.814
46.77,25.668
46.785,25.87
46.8,26.03
46.815,25.977
46.83,25.596
46.845,25.471
46.86,25.509
46.875,25.847
46.89,25.36
46.905,25.317
46.92,25.864
46.935,25.709
46.95,25.562
46.965,26.079
46.98,26.464
46.995,26.127
47.01,26.002
47.025,25.796
47.04,25.525
47.055,25.895
47.07,25.63
47.085,25.846
47.1,25.976
47.115,26.069
47.13,25.872
47.145,25.785
47.16,25.798
47.175,25.757
47.19,25.945
47.205,26.142
47.22,25.683
47.235,24.909
47.25,24.774
47.265,25.407
47.28,25.334
47.295,25.407
47.31,25.37
47.325,25.455
47.34,25.792
47.355,25.855
47.37,25.777
47.385,25.439
47.4,25.6
47.415,25.888
47.43,25.978
47.445,25.722
47.46,25.542
47.475,25.709
47.49,26.179
47.505,26.229
47.52,26.056
47.535,25.422
47.55,25.537
47.565,25.457
47.58,25.757
47.595,25.935
47.61,25.992
47.625,25.469
47.64,25.601
47.655,25.757
47.67,25.565
47.685,25.914
47.7,25.757
47.715,25.311
47.73,25.348
47.745,25.875
47.76,25.893
47.775,25.628
47.79,25.923
47.805,26.13
47.82,26.065
47.835,25.944
47.85,26.079
47.865,25.32
47.88,25.221
47.895,25.731
47.91,25.9
47.925,25.605
47.94,25.329
47.955,25.731
47.97,25.758
47.985,25.733
48,25.551
48.015,25.293
48.03,25.078
48.045,25.434
48.06,25.569
48.075,26.093
48.09,25.694
48.105,25.727
48.12,25.661
48.135,25.439
48.15,25.678
48.165,25.605
48.18,25.24
48.195,25.579
48.21,25.961
48.225,25.62
48.24,25.643
48.255,26.318
48.27,26.089
48.285,25.758
48.3,26.057
48.315,25.309
48.33,25.51
48.345,26.201
48.36,25.948
48.375,25.682
48.39,25.806
48.405,25.702
48.42,25.997
48.435,25.742
48.45,25.297
48.465,25.145
48.48,24.835
48.495,25.169
48.51,25.819
48.525,25.561
48.54,25.321
48.555,25.046
48.57,24.708
48.585,25.519
48.6,26.014
48.615,25.724
48.63,25.73
48.645,25.588
48.66,25.569
48.675,25.769
48.69,25.485
48.705,25.832
48.72,26.03
48.735,25.891
48.75,25.642
48.765,25.385
48.78,25.973
48.795,26.377
48.81,25.813
48.825,25.797
48.84,25.389
48.855,25.304
48.87,25.238
48.885,25.287
48.9,25.476
48.915,25.497
48.93,25.436
48.945,25.477
48.96,25.325
48.975,25.452
48.99,25.66
49.005,26.121
49.02,25.647
49.035,25.351
49.05,25.255
49.065,25.457
49.08,25.946
49.095,25.807
49.11,25.471
49.125,25.827
49.14,25.47
49.155,25.6
49.17,25.446
49.185,25.263
49.2,25.464
49.215,25.911
49.23,25.963
49.245,25.188
49.26,25.807
49.275,26.36
49.29,26.101
49.305,26.229
49.32,26.071
49.335,25.784
49.35,25.697
49.365,25.626
49.38,25.132
49.395,25.486
49.41,25.669
49.425,25.845
49.44,26.095
49.455,25.963
49.47,25.638
49.485,25.457
49.5,25.54
49.515,25.464
49.53,25.076
49.545,25.399
49.56,25.569
49.575,25.612
49.59,25.587
49.605,25.56
49.62,25.676
49.635,25.427
49.65,25.706
49.665,25.98
49.68,25.553
49.695,25.601
49.71,25.44
49.725,25.467
49.74,25.821
49.755,25.803
49.77,25.323
49.785,25.027
49.8,25.229
49.815,25.338
49.83,25.338
49.845,25.247
49.86,25.123
49.875,25.731
49.89,25.559
49.905,25.321
49.92,25.456
49.935,25.939
49.95,25.593
49.965,25.351
49.98,25.693
49.995,25.199
50.01,25.244
50.025,25.26
50.04,25.188
50.055,25.196
50.07,25.915
50.085,25.944
50.1,25.619
50.115,25.708
50.13,25.872
50.145,25.662
50.16,25.634
50.175,25.485
50.19,25.294
50.205,25.512
50.22,25.889
50.235,25.779
50.25,25.662
50.265,25.556
50.28,25.378
50.295,25.553
50.31,25.404
50.325,25.408
50.34,25.641
50.355,25.163
50.37,25.435
50.385,25.616
50.4,25.827
50.415,26.184
50.43,26.003
50.445,25.808
50.46,25.523
50.475,25.518
50.49,25.444
50.505,25.451
50.52,25.677
50.535,26.049
50.55,26.035
50.565,25.43
50.58,25.227
50.595,25.978
50.61,25.923
50.625,25.914
50.64,25.629
50.655,25.413
50.67,25.815
50.685,26.24
50.7,25.217
50.715,24.855
50.73,25.21
50.745,25.202
50.76,25.494
50.775,25.512
50.79,25.369
50.805,25.042
50.82,25.427
50.835,25.942
50.85,25.586
50.865,25.29
50.88,25.465
50.895,25.596
50.91,25.731
50.925,25.527
50.94,25.217
50.955,25.29
50.97,25.401
50.985,25.646
51,26.204
51.015,26.182
51.03,25.521
51.045,25.187
51.06,25.637
51.075,25.566
51.09,25.377
51.105,25.454
51.12,25.276
51.135,25.379
51.15,25.862
51.165,25.561
51.18,25.327
51.195,25.395
51.21,25.437
51.225,25.085
51.24,25.423
51.255,25.616
51.27,25.501
51.285,25.642
51.3,25.23
51.315,25.201
51.33,25.405
51.345,25.723
51.36,25.92
51.375,26.064
51.39,25.906
51.405,25.682
51.42,25.505
51.435,25.434
51.45,25.543
51.465,25.389
51.48,25.211
51.495,25.513
51.51,25.689
51.525,25.137
51.54,25.232
51.555,25.205
51.57,25.151
51.585,25.591
51.6,25.222
51.615,25.417
51.63,25.463
51.645,25.441
51.66,25.223
51.675,25.118
51.69,25.439
51.705,25.346
51.72,25.012
51.735,25.219
51.75,25.211
51.765,25.3
51.78,25.472
51.795,25.638
51.81,25.298
51.825,25.152
51.84,25.419
51.855,24.943
51.87,24.912
51.885,25.321
51.9,25.779
51.915,25.08
51.93,25.163
51.945,25.145
51.96,25.6
51.975,25.792
51.99,25.5
52.005,25.278
52.02,25.673
52.035,25.777
52.05,25.546
52.065,25.877
52.08,26.172
52.095,25.893
52.11,25.524
52.125,25.352
52.14,25.752
52.155,25.528
52.17,25.635
52.185,25.898
52.2,25.74
52.215,25.467
52.23,25.169
52.245,25.239
52.26,25.157
52.275,25.349
52.29,25.43
52.305,25.583
52.32,25.524
52.335,25.459
52.35,25.388
52.365,25.3
52.38,25.586
52.395,25.784
52.41,25.377
52.425,25.186
52.44,24.949
52.455,25.379
52.47,25.791
52.485,25.872
52.5,25.502
52.515,25.318
52.53,25.279
52.545,25.401
52.56,25.682
52.575,25.506
52.59,25.661
52.605,25.436
52.62,25.538
52.635,25.345
52.65,25.986
52.665,26.302
52.68,25.698
52.695,25.998
52.71,25.622
52.725,25.615
52.74,25.592
52.755,25.768
52.77,25.6
52.785,25.361
52.8,25.196
52.815,25.465
52.83,26.003
52.845,26.096
52.86,25.914
52.875,25.505
52.89,25.382
52.905,25.588
52.92,25.505
52.935,25.318
52.95,25.632
52.965,25.658
52.98,25.062
52.995,25.441
53.01,25.94
53.025,26.023
53.04,26.077
53.055,25.799
53.07,25.542
53.085,25.737
53.1,25.969
53.115,25.776
53.13,25.93
53.145,25.592
53.16,25.876
53.175,26.174
53.19,25.937
53.205,26.01
53.22,26.267
53.235,26.194
53.25,25.917
53.265,25.983
53.28,25.756
53.295,25.724
53.31,25.865
53.325,26.542
53.34,26.471
53.355,26.225
53.37,26.421
53.385,26.61
53.4,26.107
53.415,25.907
53.43,26.19
53.445,26.321
53.46,26.299
53.475,26.343
53.49,26.536
53.505,26.277
53.52,25.903
53.535,26.068
53.55,26.09
53.565,26.214
53.58,26.332
53.595,26.574
53.61,26.608
53.625,26.313
53.64,26.097
53.655,26.077
53.67,26.468
53.685,26.027
53.7,26.076
53.715,26.577
53.73,26.204
53.745,25.886
53.76,25.689
53.775,25.612
53.79,25.747
53.805,25.454
53.82,25.707
53.835,25.91
53.85,26.05
53.865,26.383
53.88,26.236
53.895,26.048
53.91,25.783
53.925,26.304
53.94,26.241
53.955,25.762
53.97,25.492
53.985,25.51
54,26.13
54.015,25.469
54.03,25.287
54.045,25.514
54.06,25.504
54.075,25.458
54.09,25.43
54.105,25.329
54.12,25.667
54.135,25.385
54.15,25.657
54.165,25.475
54.18,25.804
54.195,25.547
54.21,25.452
54.225,25.496
54.24,25.808
54.255,25.555
54.27,25.667
54.285,25.949
54.3,25.678
54.315,25.196
54.33,26.023
54.345,26.083
54.36,26.032
54.375,25.626
54.39,25.141
54.405,25.108
54.42,25.341
54.435,25.212
54.45,24.88
54.465,25.671
54.48,25.75
54.495,25.751
54.51,25.853
54.525,25.398
54.54,25.648
54.555,25.269
54.57,24.99
54.585,25.03
54.6,25.514
54.615,25.678
54.63,25.598
54.645,25.497
54.66,25.392
54.675,25.38
54.69,24.951
54.705,25.03
54.72,25.75
54.735,25.971
54.75,25.876
54.765,25.449
54.78,24.917
54.795,25.004
54.81,25.531
54.825,25.336
54.84,25.722
54.855,25.199
54.87,25.141
54.885,25.128
54.9,25.077
54.915,25.302
54.93,25.627
54.945,25.27
54.96,25.422
54.975,25.647
54.99,25.706
55.005,25.39
55.02,25.476
55.035,25.286
55.05,25.216
55.065,25.021
55.08,25.421
55.095,25.637
55.11,25.226
55.125,25.05
55.14,25.032
55.155,24.878
55.17,25.509
55.185,25.616
55.2,25.731
55.215,25.524
55.23,26.275
55.245,25.694
55.26,24.739
55.275,24.655
55.29,25.036
55.305,25.046
55.32,24.901
55.335,24.947
55.35,25.184
55.365,25.493
55.38,25.567
55.395,25.35
55.41,25.245
55.425,25.413
55.44,25.327
55.455,25.205
55.47,25.216
55.485,25.187
55.5,25.216
55.515,25.386
55.53,25.419
55.545,25.23
55.56,25.358
55.575,25.711
55.59,25.863
55.605,25.438
55.62,25.372
55.635,25.553
55.65,25.26
55.665,25.464
55.68,25.821
55.695,25.698
55.71,25.119
55.725,24.507
55.74,25.085
55.755,25.457
55.77,25.194
55.785,25.097
55.8,25.426
55.815,25.134
55.83,25.338
55.845,25.61
55.86,25.422
55.875,25.455
55.89,25.504
55.905,25.06
55.92,25.112
55.935,25.274
55.95,25.657
55.965,25.242
55.98,25.353
55.995,25.648
56.01,25.412
56.025,25.583
56.04,25.407
56.055,25.802
56.07,25.772
56.085,25.206
56.1,24.885
56.115,25.062
56.13,25.534
56.145,25.972
56.16,25.822
56.175,25.829
56.19,25.401
56.205,25.195
56.22,25.329
56.235,25.948
56.25,25.735
56.265,25.748
56.28,25.499
56.295,25.481
56.31,25.708
56.325,25.73
56.34,25.625
56.355,25.184
56.37,25.371
56.385,25.711
56.4,25.909
56.415,25.508
56.43,25.663
56.445,25.369
56.46,25.428
56.475,25.989
56.49,25.426
56.505,25.19
56.52,25.768
56.535,25.774
56.55,25.076
56.565,25.427
56.58,26.166
56.595,26.027
56.61,26.022
56.625,26.529
56.64,26.405
56.655,26.013
56.67,25.895
56.685,26.363
56.7,26.513
56.715,26.721
56.73,27.6
56.745,27.426
56.76,26.882
56.775,26.626
56.79,26.842
56.805,26.686
56.82,26.918
56.835,27.657
56.85,27.845
56.865,27.275
56.88,27.484
56.895,27.632
56.91,27.954
56.925,27.843
56.94,27.529
56.955,27.37
56.97,27.885
56.985,28.109
57,28.409
57.015,28.289
57.03,27.886
57.045,27.924
57.06,28.563
57.075,27.932
57.09,28.504
57.105,28.369
57.12,27.724
57.135,27.801
57.15,27.542
57.165,27.516
57.18,27.901
57.195,27.813
57.21,27.704
57.225,27.981
57.24,27.488
57.255,27.354
57.27,27.431
57.285,27.691
57.3,28.073
57.315,27.156
57.33,26.91
57.345,27.13
57.36,27.114
57.375,27.266
57.39,27.43
57.405,27.221
57.42,27.043
57.435,27.094
57.45,27.427
57.465,27.236
57.48,26.584
57.495,26.619
57.51,26.456
57.525,26.277
57.54,26.797
57.555,26.726
57.57,26.353
57.585,26.189
57.6,25.994
57.615,26.417
57.63,26.38
57.645,26.379
57.66,26.203
57.675,25.662
57.69,25.578
57.705,26.006
57.72,25.869
57.735,25.937
57.75,25.774
57.765,25.654
57.78,25.763
57.795,25.818
57.81,25.805
57.825,25.741
57.84,25.761
57.855,25.548
57.87,25.426
57.885,25.566
57.9,25.594
57.915,25
57.93,24.662
57.945,25.021
57.96,25.164
57.975,25.359
57.99,25.664
58.005,25.626
58.02,25.608
58.035,25.005
58.05,25.675
58.065,25.775
58.08,25.32
58.095,24.688
58.11,25.282
58.125,25.484
58.14,25.04
58.155,25.452
58.17,25.487
58.185,25.315
58.2,25.468
58.215,25.841
58.23,25.667
58.245,25.415
58.26,25.354
58.275,24.761
58.29,25
58.305,25.185
58.32,25.235
58.335,25.424
58.35,25.495
58.365,25.262
58.38,25.064
58.395,25.031
58.41,25.407
58.425,25.179
58.44,25.169
58.455,25.105
58.47,24.759
58.485,25.296
58.5,25.148
58.515,24.663
58.53,25.133
58.545,25.242
58.56,25.418
58.575,25.44
58.59,25.174
58.605,25.295
58.62,25.613
58.635,25.125
58.65,24.964
58.665,25.29
58.68,25.541
58.695,25.285
58.71,24.97
58.725,25.079
58.74,25.097
58.755,25.291
58.77,25.344
58.785,25.437
58.8,25.518
58.815,25.08
58.83,25.404
58.845,25.651
58.86,25.207
58.875,25.442
58.89,25.87
58.905,25.888
58.92,25.878
58.935,25.175
58.95,25.041
58.965,25.702
58.98,25.53
58.995,25.134
59.01,25.183
59.025,24.984
59.04,24.821
59.055,24.809
59.07,25.148
59.085,25.298
59.1,24.935
59.115,25.182
59.13,25.522
59.145,25.868
59.16,25.754
59.175,25.677
59.19,25.534
59.205,25.271
59.22,25.302
59.235,25.201
59.25,24.971
59.265,25.044
59.28,25.42
59.295,25.655
59.31,25.56
59.325,25.371
59.34,24.792
59.355,24.983
59.37,25.061
59.385,25.026
59.4,25.108
59.415,25.179
59.43,25.543
59.445,25.119
59.46,24.612
59.475,24.953
59.49,25.188
59.505,25.1
59.52,25.237
59.535,25.074
59.55,25.384
59.565,25.21
59.58,24.924
59.595,25.484
59.61,25.404
59.625,24.893
59.64,24.915
59.655,25.367
59.67,25.998
59.685,25.778
59.7,25.166
59.715,25.14
59.73,25.311
59.745,25.616
59.76,25.166
59.775,25.072
59.79,24.831
59.805,25.134
59.82,25.166
59.835,25.3
59.85,25.439
59.865,25.522
59.88,25.103
59.895,24.798
59.91,25.192
59.925,25.22
59.94,25.31
59.955,25.265
59.97,25.083
59.985,24.845
60,25.355
60.015,25.439
60.03,25.542
60.045,25.264
60.06,25.081
60.075,25.588
60.09,25.238
60.105,25.705
60.12,25.735
60.135,25.115
60.15,25.048
60.165,25.129
60.18,24.937
60.195,24.885
60.21,24.862
60.225,25.145
60.24,25.097
60.255,25.158
60.27,25.117
60.285,24.749
60.3,25.048
60.315,25.016
60.33,25.012
60.345,25.32
60.36,25.674
60.375,25.114
60.39,24.764
60.405,25.351
60.42,25.198
60.435,24.835
60.45,25.196
60.465,25.258
60.48,25.363
60.495,25.248
60.51,25.01
60.525,25.322
60.54,25.15
60.555,25.518
60.57,25.663
60.585,25.186
60.6,25.072
60.615,25.271
60.63,25.112
60.645,25.258
60.66,25.344
60.675,25.337
60.69,25.594
60.705,25.626
60.72,25.071
60.735,25.173
60.75,25.142
60.765,24.961
60.78,25.204
60.795,25.426
60.81,25.163
60.825,25.225
60.84,25.605
60.855,25.687
60.87,25.587
60.885,25.685
60.9,25.151
60.915,25.359
60.93,25.633
60.945,25.566
60.96,25.234
60.975,25.559
60.99,25.3
61.005,25.083
61.02,25.15
61.035,25.072
61.05,25.293
61.065,25.179
61.08,24.972
61.095,25.323
61.11,25.623
61.125,25.186
61.14,25.425
61.155,25.719
61.17,25.821
61.185,25.501
61.2,25.266
61.215,25.36
61.23,24.75
61.245,24.748
61.26,25.362
61.275,25.294
61.29,25.353
61.305,25.486
61.32,25.554
61.335,25.143
61.35,25.023
61.365,25.101
61.38,24.981
61.395,24.858
61.41,25.21
61.425,26.032
61.44,25.625
61.455,25.58
61.47,25.413
61.485,24.922
61.5,24.995
61.515,25.354
61.53,25.267
61.545,25.381
61.56,25.498
61.575,25.356
61.59,25.488
61.605,25.304
61.62,25.487
61.635,25.246
61.65,25.626
61.665,25.334
61.68,24.783
61.695,24.789
61.71,24.718
61.725,25.278
61.74,25.305
61.755,25.868
61.77,25.604
61.785,25.339
61.8,25.579
61.815,25.69
61.83,25.899
61.845,25.878
61.86,25.761
61.875,25.288
61.89,25.124
61.905,25.862
61.92,25.467
61.935,25.124
61.95,25.307
61.965,25.59
61.98,25.777
61.995,25.593
62.01,25.07
62.025,25.362
62.04,25.459
62.055,25.737
62.07,25.718
62.085,25.561
62.1,25.635
62.115,25.18
62.13,25.56
62.145,25.536
62.16,25.715
62.175,26.054
62.19,26.136
62.205,26.047
62.22,25.846
62.235,25.909
62.25,26.478
62.265,26.718
62.28,26.829
62.295,26.738
62.31,26.864
62.325,27.206
62.34,27.116
62.355,27.166
62.37,27.512
62.385,27.369
62.4,27.255
62.415,27.312
62.43,27.344
62.445,27.511
62.46,27.489
62.475,27.951
62.49,27.945
62.505,27.044
62.52,27.579
62.535,28.434
62.55,28.426
62.565,28.2
62.58,28.106
62.595,28.74
62.61,29.261
62.625,28.573
62.64,28.513
62.655,28.282
62.67,28.856
62.685,28.978
62.7,28.837
62.715,28.641
62.73,28.692
62.745,28.736
62.76,29.05
62.775,28.849
62.79,28.631
62.805,28.549
62.82,28.398
62.835,28.254
62.85,28.543
62.865,28.545
62.88,28.48
62.895,28.411
62.91,28.486
62.925,28.396
62.94,28.557
62.955,28.397
62.97,27.89
62.985,27.048
63,27.077
63.015,27.524
63.03,27.582
63.045,27.622
63.06,27.564
63.075,27.6
63.09,27.388
63.105,27.387
63.12,27.041
63.135,26.835
63.15,26.732
63.165,26.906
63.18,26.739
63.195,26.546
63.21,26.034
63.225,25.868
63.24,25.926
63.255,25.819
63.27,25.838
63.285,25.963
63.3,26.172
63.315,25.732
63.33,25.767
63.345,26.332
63.36,26.003
63.375,25.783
63.39,25.862
63.405,26.182
63.42,25.761
63.435,25.343
63.45,24.846
63.465,24.84
63.48,25.181
63.495,25.428
63.51,25.797
63.525,25.614
63.54,25.565
63.555,25.403
63.57,25.483
63.585,25.373
63.6,25.325
63.615,25.681
63.63,25.356
63.645,25.062
63.66,25.135
63.675,25.579
63.69,25.093
63.705,24.778
63.72,24.582
63.735,24.622
63.75,24.609
63.765,24.723
63.78,25.118
63.795,24.81
63.81,24.92
63.825,25.569
63.84,25.36
63.855,24.993
63.87,24.829
63.885,25.008
63.9,25.517
63.915,25.651
63.93,24.798
63.945,25.003
63.96,25.458
63.975,25.339
63.99,24.878
64.005,24.473
64.02,24.466
64.035,24.541
64.05,25.114
64.065,25.187
64.08,25.135
64.095,25.519
64.11,24.924
64.125,25.039
64.14,25.507
64.155,25.364
64.17,25.179
64.185,25.217
64.2,24.693
64.215,24.92
64.23,25.371
64.245,24.91
64.26,24.624
64.275,24.761
64.29,25.155
64.305,24.941
64.32,25.289
64.335,25.351
64.35,24.955
64.365,25.143
64.38,24.981
64.395,25.187
64.41,25.284
64.425,25.411
64.44,25.59
64.455,25.224
64.47,25.102
64.485,25.217
64.5,24.959
64.515,25.071
64.53,24.857
64.545,25.071
64.56,25.233
64.575,25.277
64.59,25.572
64.605,25.509
64.62,25.27
64.635,24.957
64.65,25.198
64.665,25.048
64.68,25.186
64.695,24.875
64.71,24.953
64.725,25.529
64.74,25.618
64.755,25.092
64.77,24.801
64.785,25.194
64.8,24.978
64.815,24.865
64.83,24.898
64.845,24.801
64.86,25.318
64.875,25.45
64.89,25.47
64.905,24.872
64.92,24.767
64.935,24.961
64.95,25.154
64.965,25.667
64.98,25.153
64.995,24.789
65.01,24.896
65.025,24.866
65.04,24.733
65.055,24.484
65.07,24.598
65.085,24.907
65.1,25.158
65.115,24.903
65.13,25.076
65.145,24.97
65.16,24.958
65.175,25.058
65.19,25.251
65.205,25.429
65.22,25.184
65.235,24.927
65.25,24.988
65.265,24.962
65.28,24.968
65.295,24.782
65.31,25.103
65.325,25.627
65.34,24.956
65.355,24.475
65.37,24.623
65.385,25.179
65.4,24.998
65.415,24.611
65.43,24.469
65.445,25.038
65.46,25.028
65.475,25.134
65.49,25.067
65.505,24.785
65.52,24.713
65.535,24.706
65.55,24.896
65.565,24.621
65.58,24.588
65.595,25.043
65.61,25.232
65.625,25.106
65.64,25.257
65.655,25.668
65.67,24.976
65.685,24.801
65.7,25.002
65.715,24.872
65.73,24.74
65.745,24.913
65.76,25.212
65.775,25.093
65.79,25.135
65.805,25.108
65.82,25.226
65.835,25.26
65.85,25.28
65.865,24.939
65.88,24.955
65.895,24.957
65.91,24.932
65.925,24.943
65.94,25.229
65.955,25.044
65.97,25.001
65.985,24.991
66,24.87
66.015,24.67
66.03,24.68
66.045,24.547
66.06,24.613
66.075,24.61
66.09,25.309
66.105,25.156
66.12,25.027
66.135,24.887
66.15,25.071
66.165,25.076
66.18,25.032
66.195,25.141
66.21,24.866
66.225,24.576
66.24,24.479
66.255,25.186
66.27,25.498
66.285,25.174
66.3,24.698
66.315,24.512
66.33,24.685
66.345,24.541
66.36,24.498
66.375,24.951
66.39,24.723
66.405,25.039
66.42,25.309
66.435,24.979
66.45,24.759
66.465,24.602
66.48,24.753
66.495,25.196
66.51,25.251
66.525,24.809
66.54,24.715
66.555,24.685
66.57,24.751
66.585,24.969
66.6,24.998
66.615,25.071
66.63,24.438
66.645,24.383
66.66,24.499
66.675,24.726
66.69,25.245
66.705,25.516
66.72,25.071
66.735,25.201
66.75,25.088
66.765,24.911
66.78,25.096
66.795,25.148
66.81,25.595
66.825,25.069
66.84,24.731
66.855,24.441
66.87,24.504
66.885,24.569
66.9,24.885
66.915,25.026
66.93,24.912
66.945,25.013
66.96,25.173
66.975,25.235
66.99,25.179
67.005,24.825
67.02,24.888
67.035,24.806
67.05,24.675
67.065,24.783
67.08,24.613
67.095,24.548
67.11,24.753
67.125,24.868
67.14,24.86
67.155,25.326
67.17,25.454
67.185,24.901
67.2,24.899
67.215,24.702
67.23,24.688
67.245,25.379
67.26,24.993
67.275,24.999
67.29,24.935
67.305,25.341
67.32,25.482
67.335,24.857
67.35,24.721
67.365,25.069
67.38,25.262
67.395,24.511
67.41,24.681
67.425,24.835
67.44,24.39
67.455,24.462
67.47,24.784
67.485,24.684
67.5,24.946
67.515,24.569
67.53,24.641
67.545,25.32
67.56,25.06
67.575,24.62
67.59,24.657
67.605,24.493
67.62,24.296
67.635,24.356
67.65,24.542
67.665,24.884
67.68,24.948
67.695,24.863
67.71,24.945
67.725,24.634
67.74,24.773
67.755,24.959
67.77,24.904
67.785,24.951
67.8,24.502
67.815,24.817
67.83,24.817
67.845,24.36
67.86,24.258
67.875,24.686
67.89,24.737
67.905,25.052
67.92,25.023
67.935,24.599
67.95,24.669
67.965,24.622
67.98,24.849
67.995,24.944
68.01,25.068
68.025,25.027
68.04,24.698
68.055,24.569
68.07,24.329
68.085,24.676
68.1,24.88
68.115,24.55
68.13,24.775
68.145,24.508
68.16,24.384
68.175,24.755
68.19,25.167
68.205,25.097
68.22,24.675
68.235,24.353
68.25,24.681
68.265,25.255
68.28,25.009
68.295,24.856
68.31,24.86
68.325,24.729
68.34,24.823
68.355,24.873
68.37,25.258
68.385,24.916
68.4,24.596
68.415,24.925
68.43,24.659
68.445,24.553
68.46,24.701
68.475,24.74
68.49,25.149
68.505,24.735
68.52,24.55
68.535,24.706
68.55,24.761
68.565,24.692
68.58,24.623
68.595,24.9
68.61,25.14
68.625,25.294
68.64,25.025
68.655,24.781
68.67,24.83
68.685,25.246
68.7,25.174
68.715,24.936
68.73,24.516
68.745,24.473
68.76,24.725
68.775,24.911
68.79,25.095
68.805,24.652
68.82,24.019
68.835,24.012
68.85,25.159
68.865,25.028
68.88,24.75
68.895,24.475
68.91,24.643
68.925,24.959
68.94,24.765
68.955,24.411
68.97,24.42
68.985,25.39
69,25.061
69.015,24.573
69.03,24.711
69.045,25.069
69.06,24.933
69.075,24.849
69.09,24.551
69.105,24.786
69.12,24.84
69.135,24.709
69.15,25.077
69.165,25.25
69.18,25.263
69.195,24.698
69.21,24.796
69.225,24.631
69.24,24.43
69.255,24.832
69.27,25.531
69.285,24.979
69.3,24.843
69.315,25.094
69.33,25.085
69.345,24.642
69.36,24.55
69.375,25.271
69.39,25.359
69.405,24.835
69.42,24.624
69.435,24.924
69.45,25.095
69.465,25.19
69.48,25.17
69.495,24.815
69.51,24.596
69.525,24.482
69.54,25.104
69.555,25.57
69.57,24.952
69.585,24.632
69.6,24.6
69.615,24.924
69.63,24.65
69.645,24.585
69.66,24.619
69.675,24.576
69.69,24.769
69.705,24.905
69.72,25.048
69.735,25.143
69.75,24.923
69.765,24.575
69.78,24.377
69.795,24.816
69.81,25.129
69.825,24.906
69.84,24.757
69.855,24.813
69.87,25.387
69.885,24.88
69.9,24.522
69.915,24.683
69.93,24.637
69.945,25.095
69.96,25.261
69.975,25.535
69.99,24.646
70.005,24.099
70.02,24.147
70.035,24.303
70.05,24.349
70.065,24.179
70.08,24.322
70.095,24.372
70.11,24.621
70.125,24.941
70.14,24.807
70.155,24.499
70.17,24.778
70.185,25.303
70.2,25.014
70.215,24.786
70.23,24.405
70.245,24.797
70.26,25.381
70.275,25.406
70.29,24.933
70.305,24.558
70.32,24.601
70.335,24.778
70.35,24.974
70.365,25.155
70.38,25.258
70.395,25.277
70.41,24.937
70.425,24.941
70.44,24.417
70.455,24.313
70.47,24.655
70.485,24.419
70.5,24.154
70.515,24.801
70.53,24.833
70.545,25.061
70.56,25.301
70.575,24.937
70.59,24.933
70.605,24.814
70.62,24.874
70.635,24.845
70.65,24.973
70.665,25.15
70.68,25.284
70.695,25.044
70.71,24.502
70.725,24.556
70.74,24.741
70.755,25.124
70.77,25.282
70.785,24.919
70.8,24.47
70.815,24.836
70.83,24.908
70.845,25.067
70.86,24.935
70.875,25.358
70.89,25.527
70.905,25.418
70.92,25.053
70.935,24.619
70.95,24.465
70.965,25.305
70.98,24.99
70.995,24.839
71.01,24.997
71.025,24.994
71.04,24.879
71.055,24.545
71.07,25.064
71.085,25.42
71.1,25.153
71.115,25.104
71.13,25.069
71.145,24.394
71.16,24.574
71.175,25.236
71.19,25.364
71.205,25.259
71.22,25.38
71.235,25.466
71.25,25.517
71.265,25.399
71.28,24.939
71.295,24.55
71.31,24.774
71.325,25.145
71.34,25.037
71.355,25.196
71.37,24.755
71.385,24.401
71.4,24.6
71.415,25.038
71.43,24.789
71.445,24.222
71.46,24.287
71.475,24.589
71.49,24.791
71.505,24.839
71.52,25.053
71.535,25.021
71.55,24.582
71.565,24.751
71.58,24.774
71.595,24.382
71.61,24.608
71.625,25.313
71.64,25.346
71.655,24.933
71.67,24.867
71.685,24.873
71.7,24.752
71.715,24.492
71.73,24.615
71.745,24.919
71.76,24.533
71.775,24.243
71.79,24.351
71.805,24.654
71.82,24.805
71.835,24.619
71.85,24.345
71.865,24.584
71.88,24.626
71.895,24.549
71.91,24.524
71.925,24.459
71.94,24.245
71.955,24.589
71.97,25.103
71.985,25.253
72,25.179
72.015,24.998
72.03,24.602
72.045,24.631
72.06,24.502
72.075,24.677
72.09,24.461
72.105,24.681
72.12,24.893
72.135,25.306
72.15,25.388
72.165,24.803
72.18,24.709
72.195,25.216
72.21,24.923
72.225,24.525
72.24,24.82
72.255,24.749
72.27,24.9
72.285,24.94
72.3,25.553
72.315,25.411
72.33,24.977
72.345,25.065
72.36,24.92
72.375,24.61
72.39,24.889
72.405,25.094
72.42,24.826
72.435,24.858
72.45,24.682
72.465,25.011
72.48,24.874
72.495,24.81
72.51,24.836
72.525,24.474
72.54,24.749
72.555,24.573
72.57,24.281
72.585,24.248
72.6,24.439
72.615,24.45
72.63,24.653
72.645,24.693
72.66,24.772
72.675,24.6
72.69,24.827
72.705,24.841
72.72,24.74
72.735,24.434
72.75,24.291
72.765,24.315
72.78,24.141
72.795,24.888
72.81,25.139
72.825,24.466
72.84,24.397
72.855,24.714
72.87,24.678
72.885,24.946
72.9,24.904
72.915,24.816
72.93,24.9
72.945,25.286
72.96,25.474
72.975,25.086
72.99,24.759
73.005,24.806
73.02,24.618
73.035,24.365
73.05,24.822
73.065,24.459
73.08,24.341
73.095,24.782
73.11,25.154
73.125,24.842
73.14,24.784
73.155,24.959
73.17,25.123
73.185,24.457
73.2,24.401
73.215,24.777
73.23,24.782
73.245,24.517
73.26,24.345
73.275,24.157
73.29,24.687
73.305,25.174
73.32,25.069
73.335,25.346
73.35,25.431
73.365,25.007
73.38,24.772
73.395,24.708
73.41,24.397
73.425,24.202
73.44,24.78
73.455,25.536
73.47,25.563
73.485,25.29
73.5,25.122
73.515,25.159
73.53,25.21
73.545,24.796
73.56,25.154
73.575,25.464
73.59,24.95
73.605,25.105
73.62,25.322
73.635,24.88
73.65,24.541
73.665,24.842
73.68,24.723
73.695,24.468
73.71,24.767
73.725,25.476
73.74,25.81
73.755,25.522
73.77,24.924
73.785,24.728
73.8,24.621
73.815,24.703
73.83,25.094
73.845,25.165
73.86,25.128
73.875,24.784
73.89,24.968
73.905,24.961
73.92,24.987
73.935,25.233
73.95,25.173
73.965,25.869
73.98,25.729
73.995,24.894
74.01,25.12
74.025,25.633
74.04,25.61
74.055,25.312
74.07,25.545
74.085,25.023
74.1,24.991
74.115,25.215
74.13,25.368
74.145,25.419
74.16,25.054
74.175,25.152
74.19,25.309
74.205,25.49
74.22,25.234
74.235,24.93
74.25,24.593
74.265,24.955
74.28,25.109
74.295,25.058
74.31,25.497
74.325,25.306
74.34,25.609
74.355,25.286
74.37,25.235
74.385,25.045
74.4,24.467
74.415,24.627
74.43,25.1
74.445,25.459
74.46,25.423
74.475,25.43
74.49,24.825
74.505,24.253
74.52,24.726
74.535,25.166
74.55,25.348
74.565,25.484
74.58,25.315
74.595,25.348
74.61,25.547
74.625,25.615
74.64,25.016
74.655,25.246
74.67,25.343
74.685,24.964
74.7,24.752
74.715,25.065
74.73,25.32
74.745,25.103
74.76,25.339
74.775,25.103
74.79,25.009
74.805,25.452
74.82,25.171
74.835,25.076
74.85,24.571
74.865,24.599
74.88,24.699
74.895,25.32
74.91,25.171
74.925,24.882
74.94,25.115
74.955,25.01
74.97,24.236
74.985,24.377
75,24.61
75.015,24.642
75.03,24.675
75.045,24.502
75.06,24.383
75.075,24.63
75.09,24.961
75.105,24.779
75.12,24.452
75.135,24.87
75.15,24.857
75.165,24.258
75.18,24.404
75.195,23.796
75.21,23.653
75.225,23.775
75.24,23.495
75.255,23.404
75.27,24.238
75.285,25.34
75.3,23.917
75.315,22.254
75.33,20.53
75.345,10.27
