24.99,0
25.005,0.173
25.02,0.172
25.035,0.165
25.05,0.144
25.065,0.095
25.08,-0.033
25.095,0.051
25.11,0.172
25.125,0.108
25.14,0.03
25.155,0.001
25.17,0.042
25.185,0.105
25.2,0.082
25.215,0.071
25.23,0.122
25.245,0.123
25.26,0.085
25.275,0.076
25.29,0.148
25.305,0.133
25.32,0.102
25.335,0.124
25.35,0.101
25.365,0.08
25.38,0.077
25.395,0.004
25.41,0.01
25.425,0.074
25.44,0.09
25.455,0.054
25.47,0.08
25.485,0.08
25.5,0.078
25.515,0.107
25.53,0.043
25.545,0.012
25.56,0.054
25.575,0.04
25.59,0.056
25.605,0.036
25.62,0.023
25.635,0.082
25.65,0.067
25.665,0.101
25.68,0.073
25.695,0.04
25.71,0.037
25.725,0.068
25.74,0.029
25.755,-0.024
25.77,0.022
25.785,0.059
25.8,0.085
25.815,0.097
25.83,0.038
25.845,0.002
25.86,0.022
25.875,-0.063
25.89,-0.069
25.905,-0.01
25.92,0.024
25.935,0.032
25.95,-0.002
25.965,-0.011
25.98,-0.023
25.995,0.029
26.01,0.051
26.025,0.03
26.04,0.018
26.055,0.006
26.07,-0.03
26.085,-0.058
26.1,-0.042
26.115,0.024
26.13,0.01
26.145,0.01
26.16,-0.004
26.175,-0.017
26.19,-0.016
26.205,-0.041
26.22,0.01
26.235,0.018
26.25,-0.039
26.265,-0.039
26.28,-0.029
26.295,-0.042
26.31,-0.06
26.325,-0.059
26.34,-0.029
26.355,-0.034
26.37,-0.013
26.385,0.012
26.4,0.029
26.415,-0.009
26.43,0.003
26.445,0.012
26.46,-0.028
26.475,-0.034
26.49,-0.008
26.505,0.009
26.52,0.01
26.535,-0.018
26.55,-0.029
26.565,0.024
26.58,0.014
26.595,-0.003
26.61,-0.005
26.625,-0.04
26.64,-0.033
26.655,-0.023
26.67,0.006
26.685,-0.02
26.7,-0.061
26.715,-0.062
26.73,-0.014
26.745,-0.01
26.76,0.024
26.775,0.027
26.79,-0.002
26.805,0.045
26.82,0.074
26.835,0.003
26.85,-0.015
26.865,0.001
26.88,-0.023
26.895,-0.039
26.91,-0.013
26.925,-0.03
26.94,-0.004
26.955,0
26.97,0.017
26.985,0.035
27,-0.004
27.015,-0.039
27.03,-0.034
27.045,0.03
27.06,0.006
27.075,-0.058
27.09,-0.014
27.105,0.002
27.12,0.016
27.135,0.027
27.15,0.025
27.165,-0.015
27.18,-0.012
27.195,-0.036
27.21,-0.044
27.225,-0.021
27.24,-0.011
27.255,-0.037
27.27,-0.036
27.285,-0.041
27.3,-0.014
27.315,-0.02
27.33,-0.009
27.345,-0.039
27.36,-0.061
27.375,-0.045
27.39,-0.014
27.405,-0.017
27.42,-0.054
27.435,-0.06
27.45,-0.032
27.465,-0.021
27.48,-0.03
27.495,-0.029
27.51,-0.013
27.525,0.025
27.54,0.005
27.555,-0.011
27.57,-0.03
27.585,-0.066
27.6,0.009
27.615,0.004
27.63,-0.026
27.645,-0.023
27.66,-0.053
27.675,-0.055
27.69,-0.001
27.705,0.004
27.72,-0.012
27.735,-0.022
27.75,-0.017
27.765,-0.026
27.78,-0.006
27.795,-0.008
27.81,-0.033
27.825,-0.023
27.84,0.01
27.855,-0.008
27.87,-0.05
27.885,-0.067
27.9,-0.006
27.915,-0.008
27.93,-0.003
27.945,0.035
27.96,0.021
27.975,0.04
27.99,0.015
28.005,0.016
28.02,0.021
28.035,-0.012
28.05,-0.009
28.065,0.027
28.08,0.009
28.095,-0.027
28.11,-0.023
28.125,-0.033
28.14,-0.066
28.155,-0.047
28.17,-0.043
28.185,-0.018
28.2,-0.021
28.215,-0.039
28.23,-0.014
28.245,0.029
28.26,0.036
28.275,0.06
28.29,0.081
28.305,0.045
28.32,0.073
28.335,0.043
28.35,0.044
28.365,0.05
28.38,0.018
28.395,0.041
28.41,0.047
28.425,0.032
28.44,-0.007
28.455,-0.024
28.47,-0.002
28.485,0
28.5,0.019
28.515,0.006
28.53,-0.009
28.545,0.022
28.56,-0.011
28.575,-0.019
28.59,-0.003
28.605,-0.008
28.62,0.005
28.635,0.055
28.65,0.066
28.665,0.038
28.68,0.015
28.695,-0.007
28.71,-0.006
28.725,0
28.74,0.018
28.755,0.031
28.77,0.022
28.785,0.01
28.8,-0.001
28.815,0.003
28.83,0.005
28.845,0.027
28.86,0.056
28.875,0.039
28.89,0.06
28.905,0.082
28.92,0.045
28.935,0.035
28.95,0.04
28.965,0.017
28.98,-0.008
28.995,0.019
29.01,0.011
29.025,0.027
29.04,0.066
29.055,0.008
29.07,0.032
29.085,0.087
29.1,0.064
29.115,0.061
29.13,0.043
29.145,0.022
29.16,0.054
29.175,0.081
29.19,0.103
29.205,0.094
29.22,0.069
29.235,0.099
29.25,0.161
29.265,0.207
29.28,0.221
29.295,0.2
29.31,0.213
29.325,0.245
29.34,0.263
29.355,0.345
29.37,0.395
29.385,0.417
29.4,0.442
29.415,0.472
29.43,0.514
29.445,0.588
29.46,0.669
29.475,0.689
29.49,0.728
29.505,0.789
29.52,0.868
29.535,0.944
29.55,1.015
29.565,1.082
29.58,1.126
29.595,1.19
29.61,1.24
29.625,1.283
29.64,1.357
29.655,1.457
29.67,1.519
29.685,1.542
29.7,1.623
29.715,1.706
29.73,1.75
29.745,1.821
29.76,1.884
29.775,1.983
29.79,2.037
29.805,2.062
29.82,2.078
29.835,2.103
29.85,2.116
29.865,2.151
29.88,2.161
29.895,2.205
29.91,2.232
29.925,2.21
29.94,2.188
29.955,2.167
29.97,2.113
29.985,2.08
30,2.079
30.015,2.061
30.03,2.03
30.045,1.948
30.06,1.891
30.075,1.884
30.09,1.842
30.105,1.751
30.12,1.714
30.135,1.678
30.15,1.602
30.165,1.481
30.18,1.401
30.195,1.345
30.21,1.304
30.225,1.222
30.24,1.189
30.255,1.142
30.27,1.056
30.285,0.97
30.3,0.865
30.315,0.853
30.33,0.794
30.345,0.763
30.36,0.706
30.375,0.665
30.39,0.626
30.405,0.556
30.42,0.464
30.435,0.426
30.45,0.415
30.465,0.402
30.48,0.372
30.495,0.307
30.51,0.306
30.525,0.311
30.54,0.242
30.555,0.209
30.57,0.178
30.585,0.176
30.6,0.164
30.615,0.128
30.63,0.094
30.645,0.057
30.66,0.052
30.675,0.08
30.69,0.044
30.705,0.059
30.72,0.055
30.735,0.04
30.75,0.023
30.765,0.033
30.78,0.09
30.795,0.056
30.81,0.012
30.825,0.035
30.84,0.039
30.855,0.002
30.87,0.006
30.885,0.024
30.9,-0.001
30.915,0.015
30.93,0.014
30.945,0.001
30.96,-0.001
30.975,-0.025
30.99,-0.018
31.005,-0.009
31.02,-0.056
31.035,-0.052
31.05,-0.015
31.065,-0.008
31.08,-0.023
31.095,-0.028
31.11,0.008
31.125,0.013
31.14,-0.021
31.155,-0.01
31.17,0.015
31.185,0.02
31.2,0.026
31.215,0.02
31.23,-0.005
31.245,-0.017
31.26,-0.049
31.275,-0.017
31.29,-0.014
31.305,-0.035
31.32,-0.063
31.335,-0.058
31.35,-0.03
31.365,0.033
31.38,-0.008
31.395,-0.029
31.41,-0.011
31.425,-0.032
31.44,-0.034
31.455,-0.005
31.47,-0.004
31.485,-0.024
31.5,-0.061
31.515,-0.025
31.53,-0.047
31.545,-0.023
31.56,0.008
31.575,-0.002
31.59,-0.006
31.605,-0.015
31.62,0.002
31.635,-0.013
31.65,-0.019
31.665,0.007
31.68,0.021
31.695,-0.014
31.71,-0.037
31.725,-0.02
31.74,-0.014
31.755,0.03
31.77,0.042
31.785,0.048
31.8,0.061
31.815,0.015
31.83,0.04
31.845,0.062
31.86,0.018
31.875,-0.01
31.89,-0.009
31.905,0
31.92,0.036
31.935,0.033
31.95,0.024
31.965,0.014
31.98,0.016
31.995,0.005
32.01,0
32.025,0.013
32.04,-0.022
32.055,-0.028
32.07,-0.001
32.085,0.003
32.1,-0.006
32.115,-0.021
32.13,-0.043
32.145,-0.062
32.16,-0.032
32.175,-0.037
32.19,-0.058
32.205,-0.04
32.22,-0.053
32.235,-0.045
32.25,-0.04
32.265,-0.036
32.28,-0.03
32.295,-0.04
32.31,-0.054
32.325,-0.027
32.34,-0.021
32.355,-0.058
32.37,-0.051
32.385,-0.052
32.4,-0.016
32.415,-0.027
32.43,-0.029
32.445,-0.053
32.46,-0.054
32.475,-0.048
32.49,-0.007
32.505,-0.02
32.52,-0.035
32.535,-0.044
32.55,-0.038
32.565,-0.051
32.58,-0.039
32.595,-0.053
32.61,-0.035
32.625,-0.02
32.64,-0.028
32.655,-0.047
32.67,-0.052
32.685,-0.05
32.7,-0.047
32.715,-0.047
32.73,-0.062
32.745,-0.059
32.76,-0.009
32.775,-0.032
32.79,-0.022
32.805,-0.043
32.82,0.013
32.835,0.002
32.85,-0.015
32.865,-0.027
32.88,-0.062
32.895,-0.005
32.91,0.039
32.925,0.029
32.94,0.019
32.955,0.032
32.97,0.037
32.985,0
33,0.023
33.015,0.023
33.03,0.027
33.045,0.006
33.06,0.021
33.075,0.013
33.09,-0.011
33.105,0.019
33.12,0.017
33.135,-0.004
33.15,0.03
33.165,0.034
33.18,-0.003
33.195,-0.025
33.21,-0.037
33.225,-0.035
33.24,-0.054
33.255,-0.021
33.27,-0.011
33.285,-0.029
33.3,-0.037
33.315,-0.053
33.33,-0.042
33.345,-0.032
33.36,-0.036
33.375,-0.033
33.39,-0.01
33.405,-0.03
33.42,-0.033
33.435,-0.016
33.45,0.003
33.465,0.006
33.48,-0.021
33.495,-0.022
33.51,0.006
33.525,-0.009
33.54,-0.037
33.555,0.004
33.57,-0.037
33.585,-0.034
33.6,0.013
33.615,0.025
33.63,0.023
33.645,0.045
33.66,0.06
33.675,0.047
33.69,0.021
33.705,-0.005
33.72,0.021
33.735,0.038
33.75,0.032
33.765,0.045
33.78,0.031
33.795,0.029
33.81,0.036
33.825,0.058
33.84,0.062
33.855,0.064
33.87,0.066
33.885,0.039
33.9,0.039
33.915,0.066
33.93,0.073
33.945,0.07
33.96,0.111
33.975,0.087
33.99,0.086
34.005,0.129
34.02,0.156
34.035,0.118
34.05,0.117
34.065,0.127
34.08,0.122
34.095,0.084
34.11,0.086
34.125,0.14
34.14,0.179
34.155,0.184
34.17,0.182
34.185,0.2
34.2,0.23
34.215,0.237
34.23,0.194
34.245,0.194
34.26,0.221
34.275,0.225
34.29,0.284
34.305,0.291
34.32,0.257
34.335,0.264
34.35,0.273
34.365,0.275
34.38,0.298
34.395,0.282
34.41,0.286
34.425,0.332
34.44,0.339
34.455,0.35
34.47,0.4
34.485,0.451
34.5,0.471
34.515,0.451
34.53,0.477
34.545,0.533
34.56,0.572
34.575,0.583
34.59,0.652
34.605,0.717
34.62,0.745
34.635,0.808
34.65,0.881
34.665,0.994
34.68,1.085
34.695,1.124
34.71,1.2
34.725,1.342
34.74,1.456
34.755,1.572
34.77,1.68
34.785,1.8
34.8,1.93
34.815,2.095
34.83,2.222
34.845,2.392
34.86,2.579
34.875,2.707
34.89,2.859
34.905,3.05
34.92,3.232
34.935,3.388
34.95,3.568
34.965,3.789
34.98,3.985
34.995,4.158
35.01,4.365
35.025,4.519
35.04,4.736
35.055,4.949
35.07,5.128
35.085,5.283
35.1,5.431
35.115,5.555
35.13,5.718
35.145,5.891
35.16,5.986
35.175,6.107
35.19,6.171
35.205,6.234
35.22,6.287
35.235,6.327
35.25,6.382
35.265,6.387
35.28,6.377
35.295,6.329
35.31,6.301
35.325,6.275
35.34,6.191
35.355,6.121
35.37,6.017
35.385,5.89
35.4,5.713
35.415,5.619
35.43,5.499
35.445,5.337
35.46,5.164
35.475,5.02
35.49,4.83
35.505,4.67
35.52,4.507
35.535,4.326
35.55,4.16
35.565,3.947
35.58,3.745
35.595,3.592
35.61,3.415
35.625,3.241
35.64,3.073
35.655,2.856
35.67,2.697
35.685,2.567
35.7,2.431
35.715,2.291
35.73,2.126
35.745,1.972
35.76,1.855
35.775,1.702
35.79,1.562
35.805,1.471
35.82,1.358
35.835,1.234
35.85,1.128
35.865,1.092
35.88,0.983
35.895,0.891
35.91,0.843
35.925,0.763
35.94,0.678
35.955,0.641
35.97,0.597
35.985,0.534
36,0.502
36.015,0.49
36.03,0.427
36.045,0.385
36.06,0.352
36.075,0.335
36.09,0.361
36.105,0.331
36.12,0.302
36.135,0.277
36.15,0.304
36.165,0.3
36.18,0.241
36.195,0.201
36.21,0.213
36.225,0.204
36.24,0.229
36.255,0.235
36.27,0.233
36.285,0.246
36.3,0.235
36.315,0.239
36.33,0.247
36.345,0.251
36.36,0.225
36.375,0.234
36.39,0.24
36.405,0.245
36.42,0.249
36.435,0.256
36.45,0.286
36.465,0.278
36.48,0.261
36.495,0.268
36.51,0.216
36.525,0.221
36.54,0.286
36.555,0.296
36.57,0.315
36.585,0.34
36.6,0.32
36.615,0.286
36.63,0.333
36.645,0.37
36.66,0.365
36.675,0.328
36.69,0.344
36.705,0.384
36.72,0.387
36.735,0.405
36.75,0.391
36.765,0.377
36.78,0.366
36.795,0.385
36.81,0.437
36.825,0.421
36.84,0.398
36.855,0.381
36.87,0.395
36.885,0.411
36.9,0.438
36.915,0.386
36.93,0.328
36.945,0.344
36.96,0.354
36.975,0.357
36.99,0.336
37.005,0.301
37.02,0.292
37.035,0.293
37.05,0.295
37.065,0.303
37.08,0.304
37.095,0.283
37.11,0.257
37.125,0.215
37.14,0.222
37.155,0.231
37.17,0.216
37.185,0.232
37.2,0.225
37.215,0.222
37.23,0.184
37.245,0.154
37.26,0.142
37.275,0.103
37.29,0.09
37.305,0.111
37.32,0.096
37.335,0.078
37.35,0.072
37.365,0.09
37.38,0.066
37.395,0.038
37.41,0.031
37.425,0.007
37.44,0.022
37.455,0.031
37.47,0.05
37.485,0.047
37.5,0.005
37.515,-0.018
37.53,-0.012
37.545,-0.018
37.56,-0.019
37.575,0.014
37.59,-0.018
37.605,-0.009
37.62,0.001
37.635,0.008
37.65,0.004
37.665,0.019
37.68,-0.004
37.695,-0.035
37.71,-0.04
37.725,0.007
37.74,0.02
37.755,0.028
37.77,0.01
37.785,0.006
37.8,-0.033
37.815,-0.057
37.83,-0.012
37.845,-0.008
37.86,-0.006
37.875,-0.007
37.89,-0.013
37.905,0.013
37.92,0.03
37.935,0.017
37.95,-0.027
37.965,-0.047
37.98,-0.035
37.995,-0.037
38.01,-0.038
38.025,-0.032
38.04,-0.006
38.055,0
38.07,-0.028
38.085,-0.01
38.1,0.003
38.115,-0.001
38.13,-0.026
38.145,-0.029
38.16,-0.013
38.175,-0.002
38.19,-0.024
38.205,-0.01
38.22,0.001
38.235,-0.038
38.25,-0.037
38.265,-0.04
38.28,-0.022
38.295,-0.031
38.31,-0.005
38.325,0.014
38.34,0.022
38.355,-0.004
38.37,-0.046
38.385,-0.033
38.4,0.011
38.415,0.006
38.43,-0.001
38.445,0.004
38.46,-0.012
38.475,-0.012
38.49,-0.006
38.505,-0.005
38.52,-0.025
38.535,-0.031
38.55,-0.033
38.565,-0.032
38.58,-0.034
38.595,-0.015
38.61,-0.015
38.625,-0.014
38.64,-0.042
38.655,-0.056
38.67,-0.057
38.685,-0.034
38.7,-0.003
38.715,-0.013
38.73,-0.025
38.745,-0.035
38.76,-0.027
38.775,-0.004
38.79,-0.024
38.805,-0.017
38.82,-0.04
38.835,-0.041
38.85,0.001
38.865,0.022
38.88,0.014
38.895,-0.016
38.91,-0.033
38.925,-0.01
38.94,0.026
38.955,0.01
38.97,-0.014
38.985,-0.029
39,-0.056
39.015,-0.046
39.03,-0.031
39.045,-0.023
39.06,-0.025
39.075,-0.035
39.09,-0.002
39.105,-0.003
39.12,-0.027
39.135,-0.016
39.15,-0.006
39.165,0.001
39.18,0.024
39.195,0.03
39.21,-0.015
39.225,-0.033
39.24,-0.021
39.255,-0.024
39.27,0.001
39.285,0
39.3,-0.034
39.315,-0.052
39.33,-0.056
39.345,-0.038
39.36,-0.036
39.375,-0.028
39.39,-0.012
39.405,-0.001
39.42,-0.039
39.435,-0.036
39.45,-0.048
39.465,-0.014
39.48,0.021
39.495,-0.024
39.51,-0.014
39.525,-0.015
39.54,-0.014
39.555,-0.014
39.57,-0.039
39.585,-0.052
39.6,-0.046
39.615,-0.049
39.63,-0.03
39.645,-0.025
39.66,-0.028
39.675,-0.035
39.69,-0.037
39.705,-0.011
39.72,-0.002
39.735,-0.003
39.75,-0.02
39.765,-0.056
39.78,-0.048
39.795,-0.012
39.81,-0.03
39.825,-0.034
39.84,-0.005
39.855,0.015
39.87,-0.01
39.885,-0.037
39.9,-0.028
39.915,-0.018
39.93,-0.013
39.945,-0.032
39.96,-0.044
39.975,-0.026
39.99,-0.051
40.005,-0.02
40.02,0
40.035,0.017
40.05,0.001
40.065,-0.022
40.08,-0.038
40.095,-0.031
40.11,-0.014
40.125,-0.031
40.14,-0.039
40.155,-0.054
40.17,-0.016
40.185,0.003
40.2,-0.033
40.215,-0.055
40.23,-0.023
40.245,-0.025
40.26,-0.031
40.275,-0.033
40.29,-0.013
40.305,-0.001
40.32,-0.039
40.335,-0.019
40.35,-0.028
40.365,-0.053
40.38,-0.02
40.395,-0.02
40.41,-0.046
40.425,-0.014
40.44,0.003
40.455,-0.001
40.47,-0.006
40.485,0.01
40.5,0.002
40.515,-0.028
40.53,-0.05
40.545,-0.042
40.56,-0.013
40.575,-0.005
40.59,-0.013
40.605,-0.028
40.62,-0.052
40.635,-0.024
40.65,0.002
40.665,0.001
40.68,-0.025
40.695,-0.013
40.71,-0.002
40.725,-0.039
40.74,-0.011
40.755,-0.004
40.77,-0.012
40.785,-0.01
40.8,0
40.815,-0.011
40.83,-0.017
40.845,0.001
40.86,-0.034
40.875,-0.055
40.89,-0.043
40.905,0.008
40.92,0.001
40.935,-0.018
40.95,-0.01
40.965,-0.031
40.98,-0.034
40.995,-0.04
41.01,-0.05
41.025,-0.051
41.04,-0.037
41.055,-0.021
41.07,-0.037
41.085,-0.046
41.1,-0.043
41.115,-0.031
41.13,-0.022
41.145,-0.023
41.16,-0.03
41.175,-0.053
41.19,-0.044
41.205,-0.025
41.22,-0.012
41.235,-0.027
41.25,-0.008
41.265,-0.023
41.28,-0.045
41.295,-0.055
41.31,-0.032
41.325,0.013
41.34,0.015
41.355,-0.001
41.37,-0.006
41.385,0.001
41.4,0.013
41.415,0.009
41.43,0.001
41.445,0.015
41.46,-0.022
41.475,-0.03
41.49,-0.022
41.505,-0.031
41.52,-0.009
41.535,0.012
41.55,0.028
41.565,-0.004
41.58,-0.034
41.595,-0.034
41.61,-0.002
41.625,0.026
41.64,0.038
41.655,0.014
41.67,-0.021
41.685,-0.005
41.7,-0.009
41.715,-0.032
41.73,-0.016
41.745,0.009
41.76,0.018
41.775,0.011
41.79,-0.007
41.805,-0.008
41.82,0.022
41.835,0.022
41.85,0.054
41.865,0.04
41.88,0.03
41.895,0.014
41.91,0.007
41.925,0.04
41.94,0.035
41.955,0.02
41.97,0.033
41.985,0.014
42,-0.011
42.015,0.038
42.03,0.054
42.045,0.026
42.06,0.009
42.075,0.038
42.09,0.038
42.105,0.018
42.12,0.047
42.135,0.078
42.15,0.084
42.165,0.101
42.18,0.073
42.195,0.085
42.21,0.089
42.225,0.088
42.24,0.107
42.255,0.104
42.27,0.111
42.285,0.13
42.3,0.173
42.315,0.153
42.33,0.17
42.345,0.193
42.36,0.209
42.375,0.224
42.39,0.243
42.405,0.256
42.42,0.3
42.435,0.316
42.45,0.325
42.465,0.373
42.48,0.398
42.495,0.386
42.51,0.392
42.525,0.466
42.54,0.48
42.555,0.494
42.57,0.564
42.585,0.577
42.6,0.616
42.615,0.64
42.63,0.663
42.645,0.685
42.66,0.765
42.675,0.768
42.69,0.81
42.705,0.858
42.72,0.857
42.735,0.91
42.75,0.949
42.765,0.958
42.78,0.992
42.795,1.012
42.81,1.037
42.825,1.085
42.84,1.091
42.855,1.158
42.87,1.186
42.885,1.154
42.9,1.151
42.915,1.164
42.93,1.137
42.945,1.119
42.96,1.168
42.975,1.158
42.99,1.087
43.005,1.054
43.02,1.076
43.035,1.052
43.05,0.986
43.065,0.991
43.08,0.976
43.095,0.928
43.11,0.905
43.125,0.877
43.14,0.871
43.155,0.836
43.17,0.769
43.185,0.748
43.2,0.72
43.215,0.71
43.23,0.681
43.245,0.616
43.26,0.599
43.275,0.584
43.29,0.527
43.305,0.482
43.32,0.465
43.335,0.424
43.35,0.395
43.365,0.36
43.38,0.338
43.395,0.321
43.41,0.296
43.425,0.272
43.44,0.248
43.455,0.24
43.47,0.206
43.485,0.205
43.5,0.165
43.515,0.13
43.53,0.122
43.545,0.133
43.56,0.147
43.575,0.109
43.59,0.056
43.605,0.052
43.62,0.082
43.635,0.069
43.65,0.083
43.665,0.107
43.68,0.108
43.695,0.084
43.71,0.074
43.725,0.056
43.74,0.052
43.755,0.067
43.77,0.079
43.785,0.046
43.8,0.054
43.815,0.063
43.83,0.041
43.845,0.067
43.86,0.063
43.875,0.046
43.89,0.026
43.905,0.025
43.92,0.006
43.935,0.024
43.95,0.033
43.965,0.056
43.98,0.029
43.995,0.018
44.01,-0.001
44.025,-0.007
44.04,-0.026
44.055,-0.021
44.07,0.007
44.085,0.03
44.1,0.006
44.115,-0.003
44.13,0.004
44.145,-0.001
44.16,0.002
44.175,-0.02
44.19,-0.019
44.205,-0.053
44.22,-0.044
44.235,0
44.25,0.02
44.265,0.021
44.28,-0.016
44.295,-0.007
44.31,-0.015
44.325,-0.014
44.34,-0.002
44.355,-0.015
44.37,-0.006
44.385,0.041
44.4,0.002
44.415,-0.012
44.43,-0.002
44.445,-0.011
44.46,0.008
44.475,0.008
44.49,-0.01
44.505,-0.006
44.52,-0.018
44.535,-0.037
44.55,-0.053
44.565,-0.046
44.58,-0.028
44.595,-0.026
44.61,-0.005
44.625,-0.019
44.64,-0.029
44.655,0.02
44.67,-0.012
44.685,-0.053
44.7,-0.036
44.715,-0.027
44.73,-0.017
44.745,-0.019
44.76,-0.02
44.775,-0.015
44.79,-0.028
44.805,-0.012
44.82,0.01
44.835,0.015
44.85,0.012
44.865,-0.015
44.88,-0.014
44.895,-0.027
44.91,-0.009
44.925,-0.01
44.94,-0.009
44.955,0.02
44.97,0.013
44.985,-0.016
45,0.025
45.015,0.002
45.03,0.002
45.045,0.012
45.06,-0.009
45.075,-0.003
45.09,-0.013
45.105,-0.014
45.12,0.021
45.135,0.023
45.15,-0.004
45.165,-0.015
45.18,0.013
45.195,0.038
45.21,-0.005
45.225,-0.03
45.24,-0.005
45.255,-0.045
45.27,-0.03
45.285,-0.017
45.3,-0.027
45.315,-0.028
45.33,0.027
45.345,0.054
45.36,0.002
45.375,-0.066
45.39,-0.002
45.405,0.018
45.42,-0.017
45.435,-0.047
45.45,-0.036
45.465,-0.018
45.48,-0.022
45.495,-0.026
45.51,-0.021
45.525,-0.013
45.54,-0.005
45.555,-0.005
45.57,0.006
45.585,-0.013
45.6,-0.013
45.615,-0.038
45.63,-0.028
45.645,-0.009
45.66,-0.012
45.675,-0.021
45.69,-0.025
45.705,-0.034
45.72,-0.024
45.735,-0.05
45.75,-0.029
45.765,-0.009
45.78,-0.027
45.795,-0.024
45.81,-0.034
45.825,-0.029
45.84,-0.022
45.855,-0.02
45.87,-0.031
45.885,0.009
45.9,0.007
45.915,-0.003
45.93,0.007
45.945,0.013
45.96,0.012
45.975,0.01
45.99,-0.045
46.005,-0.021
46.02,-0.006
46.035,-0.026
46.05,-0.039
46.065,-0.026
46.08,0.011
46.095,0.01
46.11,0.008
46.125,0.029
46.14,-0.01
46.155,-0.03
46.17,-0.017
46.185,-0.022
46.2,-0.018
46.215,0.016
46.23,0.002
46.245,0.011
46.26,0.016
46.275,0.009
46.29,0.017
46.305,-0.001
46.32,-0.007
46.335,0.039
46.35,0.037
46.365,0.018
46.38,-0.024
46.395,-0.019
46.41,-0.019
46.425,0.006
46.44,0.027
46.455,0.024
46.47,0.019
46.485,0.004
46.5,0.011
46.515,0.006
46.53,-0.014
46.545,0.002
46.56,-0.018
46.575,-0.024
46.59,0.008
46.605,0.029
46.62,0.033
46.635,0.023
46.65,0.045
46.665,0.042
46.68,0.024
46.695,0.047
46.71,0.07
46.725,0.03
46.74,0.06
46.755,0.071
46.77,0.062
46.785,0.053
46.8,0.038
46.815,0.034
46.83,0.044
46.845,0.049
46.86,0.024
46.875,0.031
46.89,0.038
46.905,0.055
46.92,0.048
46.935,0.03
46.95,0.046
46.965,0.039
46.98,0.052
46.995,0.047
47.01,0.066
47.025,0.079
47.04,0.047
47.055,0.026
47.07,0.035
47.085,0.058
47.1,0.062
47.115,0.048
47.13,0.067
47.145,0.077
47.16,0.052
47.175,0.021
47.19,0.015
47.205,0.033
47.22,0.046
47.235,0.042
47.25,0.063
47.265,0.051
47.28,0.013
47.295,0.063
47.31,0.053
47.325,0.03
47.34,0.028
47.355,0.023
47.37,0.056
47.385,0.03
47.4,0.026
47.415,0.056
47.43,0.046
47.445,0.033
47.46,0.017
47.475,0.021
47.49,0.011
47.505,0.013
47.52,0.004
47.535,-0.008
47.55,-0.04
47.565,-0.025
47.58,-0.016
47.595,0.012
47.61,-0.001
47.625,-0.003
47.64,-0.004
47.655,0.003
47.67,0.019
47.685,-0.011
47.7,-0.004
47.715,0.026
47.73,0.021
47.745,0.026
47.76,0.003
47.775,-0.021
47.79,-0.01
47.805,-0.002
47.82,0.003
47.835,0.018
47.85,-0.014
47.865,-0.014
47.88,-0.001
47.895,-0.006
47.91,-0.009
47.925,-0.012
47.94,-0.015
47.955,-0.016
47.97,-0.01
47.985,0.015
48,-0.002
48.015,-0.003
48.03,0.015
48.045,0.004
48.06,-0.001
48.075,-0.003
48.09,-0.023
48.105,-0.033
48.12,-0.024
48.135,0.002
48.15,0.02
48.165,0.009
48.18,-0.006
48.195,-0.017
48.21,-0.017
48.225,-0.027
48.24,-0.05
48.255,-0.035
48.27,0.001
48.285,-0.01
48.3,-0.032
48.315,-0.046
48.33,-0.006
48.345,-0.022
48.36,-0.044
48.375,-0.037
48.39,-0.013
48.405,-0.004
48.42,-0.009
48.435,-0.013
48.45,-0.013
48.465,0.015
48.48,0.036
48.495,0.013
48.51,0.012
48.525,0.005
48.54,0.016
48.555,0.03
48.57,-0.02
48.585,-0.013
48.6,0.003
48.615,-0.021
48.63,0.007
48.645,0.033
48.66,0.012
48.675,-0.032
48.69,-0.05
48.705,-0.005
48.72,-0.018
48.735,-0.015
48.75,-0.023
48.765,-0.026
48.78,0.011
48.795,0.018
48.81,-0.023
48.825,-0.031
48.84,-0.025
48.855,-0.015
48.87,-0.026
48.885,-0.033
48.9,-0.025
48.915,-0.009
48.93,0.007
48.945,0.023
48.96,0.026
48.975,-0.002
48.99,-0.011
49.005,-0.007
49.02,-0.021
49.035,-0.004
49.05,-0.009
49.065,-0.024
49.08,-0.034
49.095,-0.011
49.11,0.005
49.125,0.001
49.14,0.015
49.155,-0.003
49.17,-0.001
49.185,-0.033
49.2,-0.025
49.215,-0.008
49.23,-0.001
49.245,-0.008
49.26,0
49.275,0.008
49.29,0.016
49.305,0.01
49.32,0.007
49.335,-0.022
49.35,-0.016
49.365,0.035
49.38,0.006
49.395,0.023
49.41,0.034
49.425,-0.016
49.44,-0.021
49.455,0.035
49.47,0.067
49.485,0.029
49.5,-0.005
49.515,-0.023
49.53,-0.002
49.545,0.026
49.56,0.05
49.575,0.037
49.59,0.015
49.605,-0.006
49.62,-0.008
49.635,-0.008
49.65,0.006
49.665,-0.011
49.68,0.009
49.695,0
49.71,-0.018
49.725,-0.018
49.74,-0.002
49.755,-0.019
49.77,-0.004
49.785,-0.026
49.8,-0.042
49.815,-0.024
49.83,-0.028
49.845,-0.05
49.86,-0.031
49.875,0.005
49.89,0.028
49.905,0.02
49.92,-0.007
49.935,-0.003
49.95,-0.021
49.965,-0.011
49.98,-0.003
49.995,-0.013
50.01,-0.025
50.025,-0.03
50.04,-0.029
50.055,-0.008
50.07,-0.013
50.085,-0.014
50.1,-0.019
50.115,-0.009
50.13,0.018
50.145,-0.009
50.16,-0.023
50.175,-0.022
50.19,-0.016
50.205,0.014
50.22,0.015
50.235,0.019
50.25,0.015
50.265,-0.01
50.28,-0.022
50.295,-0.038
50.31,-0.012
50.325,-0.019
50.34,-0.015
50.355,0.006
50.37,0.012
50.385,0.006
50.4,0.018
50.415,-0.015
50.43,-0.007
50.445,-0.01
50.46,-0.022
50.475,-0.007
50.49,0.019
50.505,0.006
50.52,-0.025
50.535,-0.016
50.55,0
50.565,0
50.58,-0.005
50.595,-0.021
50.61,-0.001
50.625,0.015
50.64,0.001
50.655,-0.012
50.67,-0.025
50.685,-0.006
50.7,0.011
50.715,0.016
50.73,0.008
50.745,0.005
50.76,-0.014
50.775,-0.018
50.79,-0.026
50.805,-0.049
50.82,-0.025
50.835,0.011
50.85,0.013
50.865,-0.031
50.88,-0.032
50.895,-0.02
50.91,0.011
50.925,0.016
50.94,-0.013
50.955,0.015
50.97,0.028
50.985,0.012
51,-0.017
51.015,-0.01
51.03,0.006
51.045,0.03
51.06,0
51.075,-0.003
51.09,0.024
51.105,0.019
51.12,0.018
51.135,0.017
51.15,-0.018
51.165,-0.033
51.18,-0.02
51.195,-0.008
51.21,-0.004
51.225,0.021
51.24,0.012
51.255,-0.012
51.27,-0.023
51.285,-0.007
51.3,0.012
51.315,-0.009
51.33,-0.001
51.345,-0.007
51.36,-0.004
51.375,0.018
51.39,0.016
51.405,0.008
51.42,0.016
51.435,-0.008
51.45,0.007
51.465,0.004
51.48,-0.005
51.495,-0.036
51.51,-0.023
51.525,-0.011
51.54,-0.022
51.555,-0.013
51.57,-0.015
51.585,-0.024
51.6,-0.005
51.615,0.003
51.63,-0.022
51.645,-0.015
51.66,0.012
51.675,0.012
51.69,0.008
51.705,-0.01
51.72,-0.02
51.735,-0.002
51.75,0
51.765,-0.004
51.78,-0.026
51.795,-0.049
51.81,-0.036
51.825,0.012
51.84,0.005
51.855,-0.003
51.87,0.025
51.885,0.022
51.9,-0.006
51.915,-0.031
51.93,-0.032
51.945,0.003
51.96,-0.008
51.975,-0.031
51.99,-0.014
52.005,0.025
52.02,-0.004
52.035,-0.017
52.05,0.017
52.065,0.011
52.08,-0.01
52.095,-0.005
52.11,-0.024
52.125,-0.049
52.14,-0.03
52.155,-0.014
52.17,0.006
52.185,0.002
52.2,-0.032
52.215,-0.012
52.23,0.004
52.245,0.011
52.26,-0.009
52.275,-0.037
52.29,0.007
52.305,0.016
52.32,0.02
52.335,0.012
52.35,-0.003
52.365,0.013
52.38,-0.014
52.395,-0.044
52.41,-0.017
52.425,0.029
52.44,0.025
52.455,-0.01
52.47,-0.009
52.485,0.013
52.5,0.023
52.515,0.051
52.53,0.066
52.545,0.034
52.56,0.013
52.575,0.025
52.59,0.03
52.605,0.053
52.62,0.062
52.635,0.053
52.65,0.052
52.665,0.046
52.68,0.083
52.695,0.079
52.71,0.033
52.725,0.062
52.74,0.087
52.755,0.083
52.77,0.096
52.785,0.085
52.8,0.078
52.815,0.132
52.83,0.164
52.845,0.145
52.86,0.142
52.875,0.169
52.89,0.198
52.905,0.202
52.92,0.183
52.935,0.197
52.95,0.19
52.965,0.192
52.98,0.204
52.995,0.249
53.01,0.252
53.025,0.261
53.04,0.283
53.055,0.265
53.07,0.281
53.085,0.314
53.1,0.334
53.115,0.352
53.13,0.344
53.145,0.329
53.16,0.316
53.175,0.343
53.19,0.36
53.205,0.368
53.22,0.385
53.235,0.399
53.25,0.378
53.265,0.382
53.28,0.388
53.295,0.408
53.31,0.412
53.325,0.391
53.34,0.39
53.355,0.36
53.37,0.338
53.385,0.339
53.4,0.365
53.415,0.37
53.43,0.359
53.445,0.345
53.46,0.355
53.475,0.333
53.49,0.321
53.505,0.325
53.52,0.284
53.535,0.26
53.55,0.277
53.565,0.284
53.58,0.275
53.595,0.245
53.61,0.229
53.625,0.237
53.64,0.247
53.655,0.21
53.67,0.202
53.685,0.218
53.7,0.188
53.715,0.158
53.73,0.174
53.745,0.155
53.76,0.143
53.775,0.135
53.79,0.119
53.805,0.083
53.82,0.083
53.835,0.099
53.85,0.096
53.865,0.089
53.88,0.061
53.895,0.037
53.91,0.034
53.925,0.039
53.94,0.045
53.955,0.031
53.97,0.033
53.985,0.032
54,0.04
54.015,0.024
54.03,-0.005
54.045,0
54.06,0.032
54.075,0.05
54.09,0.007
54.105,-0.036
54.12,-0.016
54.135,-0.009
54.15,-0.048
54.165,-0.035
54.18,-0.028
54.195,-0.001
54.21,0.011
54.225,0.006
54.24,-0.033
54.255,-0.023
54.27,0.012
54.285,0.006
54.3,0.008
54.315,-0.002
54.33,-0.01
54.345,-0.007
54.36,-0.012
54.375,-0.034
54.39,-0.013
54.405,-0.006
54.42,-0.018
54.435,-0.008
54.45,0.015
54.465,0.009
54.48,-0.009
54.495,0.002
54.51,0.01
54.525,-0.006
54.54,0.014
54.555,-0.004
54.57,-0.039
54.585,-0.037
54.6,-0.023
54.615,-0.038
54.63,-0.01
54.645,-0.022
54.66,-0.024
54.675,-0.011
54.69,-0.001
54.705,-0.022
54.72,-0.042
54.735,-0.04
54.75,-0.024
54.765,-0.029
54.78,-0.024
54.795,-0.026
54.81,-0.016
54.825,-0.027
54.84,-0.028
54.855,-0.024
54.87,-0.008
54.885,-0.01
54.9,-0.047
54.915,-0.046
54.93,-0.024
54.945,-0.042
54.96,-0.038
54.975,-0.018
54.99,-0.018
55.005,-0.017
55.02,-0.01
55.035,-0.016
55.05,-0.041
55.065,-0.024
55.08,-0.031
55.095,-0.029
55.11,-0.031
55.125,-0.013
55.14,0.007
55.155,-0.024
55.17,-0.045
55.185,-0.01
55.2,0
55.215,-0.019
55.23,-0.008
55.245,-0.034
55.26,-0.017
55.275,0.019
55.29,0.001
55.305,-0.022
55.32,-0.026
55.335,-0.026
55.35,-0.02
55.365,-0.028
55.38,-0.021
55.395,-0.03
55.41,-0.029
55.425,-0.004
55.44,-0.008
55.455,-0.034
55.47,-0.031
55.485,-0.022
55.5,-0.006
55.515,0.013
55.53,0.001
55.545,-0.009
55.56,0.006
55.575,0.012
55.59,0.007
55.605,0.002
55.62,0.01
55.635,0.02
55.65,0.033
55.665,0.027
55.68,0.009
55.695,-0.013
55.71,0.001
55.725,0.043
55.74,0.007
55.755,-0.008
55.77,0.021
55.785,0.035
55.8,0.005
55.815,0.009
55.83,0.023
55.845,0.018
55.86,0.013
55.875,0.05
55.89,0.059
55.905,0.054
55.92,0.054
55.935,0.037
55.95,0.029
55.965,0.064
55.98,0.073
55.995,0.042
56.01,0.041
56.025,0.058
56.04,0.046
56.055,0.086
56.07,0.09
56.085,0.12
56.1,0.122
56.115,0.124
56.13,0.14
56.145,0.13
56.16,0.145
56.175,0.159
56.19,0.15
56.205,0.201
56.22,0.222
56.235,0.205
56.25,0.196
56.265,0.227
56.28,0.262
56.295,0.308
56.31,0.314
56.325,0.347
56.34,0.371
56.355,0.359
56.37,0.369
56.385,0.396
56.4,0.444
56.415,0.518
56.43,0.551
56.445,0.543
56.46,0.576
56.475,0.616
56.49,0.638
56.505,0.72
56.52,0.773
56.535,0.778
56.55,0.802
56.565,0.828
56.58,0.867
56.595,0.899
56.61,0.927
56.625,0.986
56.64,1.002
56.655,1.024
56.67,1.066
56.685,1.074
56.7,1.09
56.715,1.109
56.73,1.154
56.745,1.18
56.76,1.185
56.775,1.212
56.79,1.209
56.805,1.23
56.82,1.226
56.835,1.231
56.85,1.237
56.865,1.205
56.88,1.204
56.895,1.204
56.91,1.193
56.925,1.19
56.94,1.155
56.955,1.127
56.97,1.117
56.985,1.098
57,1.073
57.015,1.031
57.03,1.041
57.045,1.008
57.06,0.96
57.075,0.945
57.09,0.938
57.105,0.927
57.12,0.907
57.135,0.861
57.15,0.812
57.165,0.742
57.18,0.71
57.195,0.692
57.21,0.638
57.225,0.595
57.24,0.588
57.255,0.578
57.27,0.543
57.285,0.511
57.3,0.492
57.315,0.482
57.33,0.457
57.345,0.4
57.36,0.351
57.375,0.295
57.39,0.263
57.405,0.262
57.42,0.261
57.435,0.234
57.45,0.21
57.465,0.182
57.48,0.182
57.495,0.195
57.51,0.172
57.525,0.147
57.54,0.15
57.555,0.124
57.57,0.092
57.585,0.066
57.6,0.07
57.615,0.059
57.63,0.062
57.645,0.081
57.66,0.077
57.675,0.055
57.69,0.053
57.705,0.052
57.72,0.051
57.735,0.034
57.75,0.028
57.765,0.032
57.78,0.007
57.795,0.018
57.81,0.028
57.825,0.048
57.84,0.033
57.855,0.03
57.87,0.031
57.885,0.018
57.9,0.012
57.915,-0.006
57.93,-0.007
57.945,0.005
57.96,0.016
57.975,0.011
57.99,0.017
58.005,0.034
58.02,0.023
58.035,0.026
58.05,0.014
58.065,-0.007
58.08,-0.011
58.095,0.018
58.11,0.023
58.125,-0.02
58.14,-0.046
58.155,-0.028
58.17,-0.007
58.185,0.037
58.2,0
58.215,-0.009
58.23,-0.016
58.245,-0.016
58.26,-0.026
58.275,-0.018
58.29,-0.011
58.305,-0.02
58.32,-0.029
58.335,-0.013
58.35,-0.011
58.365,-0.019
58.38,-0.02
58.395,0.007
58.41,0.008
58.425,-0.009
58.44,-0.006
58.455,0.009
58.47,-0.006
58.485,-0.031
58.5,-0.041
58.515,-0.022
58.53,-0.003
58.545,-0.011
58.56,0.024
58.575,0.056
58.59,0.025
58.605,-0.015
58.62,-0.02
58.635,-0.03
58.65,-0.018
58.665,-0.017
58.68,-0.022
58.695,-0.019
58.71,-0.025
58.725,-0.015
58.74,-0.017
58.755,-0.02
58.77,-0.003
58.785,-0.003
58.8,-0.006
58.815,0.011
58.83,-0.01
58.845,0.001
58.86,-0.012
58.875,-0.035
58.89,-0.019
58.905,-0.016
58.92,-0.024
58.935,-0.008
58.95,-0.007
58.965,-0.037
58.98,-0.029
58.995,-0.028
59.01,-0.031
59.025,-0.038
59.04,-0.018
59.055,-0.011
59.07,-0.017
59.085,-0.029
59.1,-0.024
59.115,-0.013
59.13,-0.02
59.145,-0.019
59.16,-0.013
59.175,-0.025
59.19,-0.032
59.205,-0.038
59.22,-0.015
59.235,0.001
59.25,-0.021
59.265,-0.046
59.28,-0.019
59.295,-0.015
59.31,-0.038
59.325,-0.011
59.34,0.001
59.355,-0.006
59.37,-0.02
59.385,-0.015
59.4,-0.009
59.415,0.007
59.43,0.005
59.445,0.001
59.46,-0.02
59.475,-0.031
59.49,-0.032
59.505,-0.026
59.52,0.007
59.535,0.019
59.55,0.003
59.565,-0.019
59.58,-0.03
59.595,0.002
59.61,0
59.625,-0.032
59.64,-0.04
59.655,-0.016
59.67,-0.014
59.685,-0.021
59.7,-0.002
59.715,0.008
59.73,-0.024
59.745,-0.026
59.76,0.002
59.775,0.024
59.79,0.012
59.805,-0.033
59.82,-0.045
59.835,-0.004
59.85,0.008
59.865,0.005
59.88,0.006
59.895,-0.005
59.91,-0.013
59.925,-0.006
59.94,-0.007
59.955,-0.005
59.97,0
59.985,0.002
60,-0.004
60.015,-0.016
60.03,-0.011
60.045,0.005
60.06,0.009
60.075,-0.011
60.09,-0.021
60.105,-0.001
60.12,0.015
60.135,0.007
60.15,-0.001
60.165,-0.027
60.18,0
60.195,0.017
60.21,0.006
60.225,0.001
60.24,-0.001
60.255,-0.018
60.27,0.005
60.285,0.037
60.3,0.018
60.315,-0.01
60.33,-0.012
60.345,-0.025
60.36,-0.011
60.375,0.007
60.39,-0.011
60.405,-0.011
60.42,0.004
60.435,0.005
60.45,-0.013
60.465,-0.005
60.48,0.033
60.495,0.028
60.51,0.021
60.525,0.03
60.54,0.004
60.555,-0.016
60.57,-0.037
60.585,-0.04
60.6,-0.045
60.615,-0.035
60.63,-0.011
60.645,-0.025
60.66,-0.003
60.675,0.02
60.69,-0.012
60.705,-0.014
60.72,0.032
60.735,0.016
60.75,-0.019
60.765,-0.009
60.78,0.008
60.795,-0.006
60.81,-0.014
60.825,0.007
60.84,0.023
60.855,0.035
60.87,0.02
60.885,-0.012
60.9,-0.013
60.915,-0.009
60.93,0.007
60.945,0.008
60.96,0.005
60.975,-0.012
60.99,0.003
61.005,0
61.02,-0.001
61.035,0.01
61.05,0.014
61.065,-0.003
61.08,-0.021
61.095,-0.008
61.11,0.033
61.125,0.028
61.14,0.014
61.155,-0.008
61.17,-0.018
61.185,0.02
61.2,0.008
61.215,0.009
61.23,0.022
61.245,0.01
61.26,0.007
61.275,0.027
61.29,0.02
61.305,0.016
61.32,0.024
61.335,0.016
61.35,0.022
61.365,0.026
61.38,0.027
61.395,0.024
61.41,0.021
61.425,0.02
61.44,0.035
61.455,0.049
61.47,0.05
61.485,0.046
61.5,0.018
61.515,0.006
61.53,0.013
61.545,0.059
61.56,0.076
61.575,0.082
61.59,0.074
61.605,0.061
61.62,0.076
61.635,0.083
61.65,0.11
61.665,0.114
61.68,0.101
61.695,0.122
61.71,0.156
61.725,0.161
61.74,0.169
61.755,0.213
61.77,0.208
61.785,0.222
61.8,0.26
61.815,0.277
61.83,0.288
61.845,0.307
61.86,0.334
61.875,0.387
61.89,0.441
61.905,0.465
61.92,0.48
61.935,0.487
61.95,0.512
61.965,0.537
61.98,0.562
61.995,0.643
62.01,0.691
62.025,0.723
62.04,0.76
62.055,0.813
62.07,0.824
62.085,0.851
62.1,0.913
62.115,0.958
62.13,1.003
62.145,1.066
62.16,1.092
62.175,1.131
62.19,1.197
62.205,1.238
62.22,1.241
62.235,1.27
62.25,1.315
62.265,1.356
62.28,1.378
62.295,1.417
62.31,1.472
62.325,1.474
62.34,1.501
62.355,1.502
62.37,1.515
62.385,1.548
62.4,1.545
62.415,1.542
62.43,1.558
62.445,1.548
62.46,1.538
62.475,1.542
62.49,1.546
62.505,1.529
62.52,1.497
62.535,1.502
62.55,1.505
62.565,1.455
62.58,1.45
62.595,1.431
62.61,1.404
62.625,1.365
62.64,1.321
62.655,1.268
62.67,1.234
62.685,1.212
62.7,1.183
62.715,1.133
62.73,1.085
62.745,1.05
62.76,1.008
62.775,0.973
62.79,0.948
62.805,0.907
62.82,0.886
62.835,0.827
62.85,0.78
62.865,0.76
62.88,0.721
62.895,0.672
62.91,0.658
62.925,0.649
62.94,0.597
62.955,0.535
62.97,0.505
62.985,0.468
63,0.453
63.015,0.404
63.03,0.36
63.045,0.369
63.06,0.374
63.075,0.318
63.09,0.284
63.105,0.28
63.12,0.255
63.135,0.27
63.15,0.264
63.165,0.22
63.18,0.19
63.195,0.172
63.21,0.161
63.225,0.144
63.24,0.141
63.255,0.11
63.27,0.108
63.285,0.107
63.3,0.096
63.315,0.114
63.33,0.114
63.345,0.093
63.36,0.093
63.375,0.067
63.39,0.057
63.405,0.048
63.42,0.054
63.435,0.039
63.45,0.033
63.465,0.035
63.48,0.035
63.495,0.018
63.51,0.018
63.525,0.019
63.54,0.027
63.555,0.028
63.57,0.023
63.585,0.018
63.6,0.033
63.615,0.024
63.63,0.018
63.645,0.008
63.66,0.025
63.675,0.016
63.69,0.016
63.705,0.035
63.72,0.04
63.735,0.008
63.75,-0.021
63.765,-0.007
63.78,0.009
63.795,0.013
63.81,-0.005
63.825,0.028
63.84,0.028
63.855,0.022
63.87,0.004
63.885,-0.011
63.9,0.002
63.915,0.013
63.93,0.012
63.945,0.009
63.96,0.003
63.975,-0.003
63.99,-0.03
64.005,-0.017
64.02,-0.002
64.035,-0.019
64.05,-0.019
64.065,-0.026
64.08,-0.003
64.095,0.03
64.11,-0.013
64.125,-0.016
64.14,0.003
64.155,0.004
64.17,-0.014
64.185,-0.018
64.2,-0.017
64.215,-0.001
64.23,0.003
64.245,0.004
64.26,-0.033
64.275,-0.016
64.29,0.023
64.305,0.003
64.32,-0.013
64.335,-0.019
64.35,-0.003
64.365,0.008
64.38,-0.007
64.395,-0.004
64.41,-0.027
64.425,-0.044
64.44,-0.029
64.455,-0.018
64.47,-0.012
64.485,0.017
64.5,0.015
64.515,-0.003
64.53,-0.009
64.545,-0.013
64.56,-0.005
64.575,0.021
64.59,0.014
64.605,-0.007
64.62,-0.014
64.635,-0.024
64.65,-0.018
64.665,-0.013
64.68,-0.027
64.695,-0.008
64.71,-0.031
64.725,-0.037
64.74,-0.021
64.755,-0.011
64.77,0.017
64.785,0.005
64.8,-0.006
64.815,-0.003
64.83,-0.018
64.845,0.006
64.86,0
64.875,-0.026
64.89,-0.024
64.905,-0.005
64.92,0.004
64.935,0.014
64.95,0.014
64.965,-0.011
64.98,-0.025
64.995,-0.01
65.01,-0.014
65.025,-0.033
65.04,-0.044
65.055,-0.015
65.07,-0.008
65.085,-0.02
65.1,-0.012
65.115,0.017
65.13,0.017
65.145,0.007
65.16,-0.003
65.175,-0.007
65.19,0.016
65.205,0.008
65.22,-0.025
65.235,-0.025
65.25,-0.015
65.265,0.017
65.28,-0.001
65.295,-0.004
65.31,0.011
65.325,0.005
65.34,0.01
65.355,0.004
65.37,-0.015
65.385,-0.002
65.4,0
65.415,-0.023
65.43,-0.024
65.445,-0.008
65.46,-0.02
65.475,-0.015
65.49,-0.033
65.505,-0.001
65.52,0.022
65.535,-0.01
65.55,-0.029
65.565,-0.006
65.58,0.038
65.595,0.023
65.61,-0.014
65.625,-0.016
65.64,0.005
65.655,0.006
65.67,0.007
65.685,-0.013
65.7,-0.002
65.715,-0.013
65.73,-0.01
65.745,0
65.76,-0.011
65.775,-0.005
65.79,0.021
65.805,0.002
65.82,-0.024
65.835,0.002
65.85,-0.011
65.865,0.004
65.88,0.012
65.895,0.016
65.91,0.003
65.925,-0.024
65.94,-0.028
65.955,-0.004
65.97,0.014
65.985,-0.013
66,-0.026
66.015,-0.034
66.03,-0.016
66.045,-0.018
66.06,-0.028
66.075,-0.017
66.09,-0.003
66.105,-0.016
66.12,-0.022
66.135,-0.017
66.15,-0.013
66.165,-0.021
66.18,-0.037
66.195,-0.019
66.21,0.002
66.225,-0.007
66.24,-0.005
66.255,-0.009
66.27,-0.017
66.285,-0.028
66.3,-0.011
66.315,-0.035
66.33,-0.015
66.345,0.001
66.36,-0.011
66.375,-0.007
66.39,-0.023
66.405,-0.02
66.42,-0.016
66.435,-0.023
66.45,0
66.465,-0.006
66.48,-0.008
66.495,-0.011
66.51,-0.009
66.525,-0.015
66.54,0.001
66.555,0.002
66.57,-0.024
66.585,-0.029
66.6,-0.031
66.615,-0.024
66.63,-0.025
66.645,-0.01
66.66,-0.013
66.675,-0.008
66.69,0.001
66.705,-0.001
66.72,-0.009
66.735,-0.007
66.75,-0.018
66.765,-0.035
66.78,-0.008
66.795,0
66.81,-0.015
66.825,-0.022
66.84,-0.021
66.855,-0.033
66.87,-0.018
66.885,-0.004
66.9,-0.017
66.915,-0.043
66.93,-0.041
66.945,-0.027
66.96,-0.03
66.975,-0.043
66.99,-0.035
67.005,-0.012
67.02,-0.023
67.035,-0.009
67.05,-0.007
67.065,-0.026
67.08,-0.04
67.095,-0.023
67.11,-0.018
67.125,-0.013
67.14,0.01
67.155,0.019
67.17,-0.01
67.185,0.01
67.2,-0.016
67.215,-0.025
67.23,0.008
67.245,-0.004
67.26,-0.031
67.275,-0.014
67.29,-0.018
67.305,-0.036
67.32,-0.025
67.335,-0.008
67.35,-0.004
67.365,-0.018
67.38,-0.016
67.395,0.005
67.41,-0.018
67.425,-0.027
67.44,-0.021
67.455,0.001
67.47,-0.012
67.485,-0.037
67.5,-0.003
67.515,0.017
67.53,-0.026
67.545,-0.029
67.56,-0.043
67.575,-0.043
67.59,-0.024
67.605,-0.004
67.62,-0.026
67.635,-0.021
67.65,-0.015
67.665,-0.031
67.68,-0.032
67.695,-0.03
67.71,-0.013
67.725,0.012
67.74,-0.003
67.755,-0.026
67.77,0.019
67.785,0.026
67.8,0.012
67.815,0.022
67.83,0.02
67.845,0.017
67.86,0.022
67.875,-0.003
67.89,-0.012
67.905,-0.004
67.92,-0.006
67.935,0.005
67.95,-0.004
67.965,-0.021
67.98,-0.036
67.995,-0.015
68.01,0.008
68.025,0
68.04,-0.027
68.055,-0.027
68.07,-0.037
68.085,-0.043
68.1,-0.029
68.115,-0.019
68.13,0.006
68.145,0.021
68.16,0.004
68.175,0.003
68.19,-0.01
68.205,-0.002
68.22,-0.024
68.235,-0.028
68.25,-0.006
68.265,0.001
68.28,0.015
68.295,-0.004
68.31,-0.033
68.325,-0.011
68.34,0.027
68.355,0.027
68.37,0.001
68.385,-0.003
68.4,-0.012
68.415,0.006
68.43,0.012
68.445,0.007
68.46,-0.007
68.475,-0.008
68.49,-0.011
68.505,-0.021
68.52,-0.027
68.535,-0.02
68.55,-0.009
68.565,-0.009
68.58,-0.003
68.595,0.006
68.61,0.009
68.625,0.006
68.64,-0.008
68.655,-0.001
68.67,-0.006
68.685,-0.012
68.7,-0.01
68.715,0.01
68.73,0.027
68.745,0.044
68.76,0.017
68.775,-0.004
68.79,-0.012
68.805,-0.013
68.82,-0.022
68.835,-0.028
68.85,0.016
68.865,0.036
68.88,0.01
68.895,-0.004
68.91,0.006
68.925,0.007
68.94,0.002
68.955,-0.005
68.97,0.005
68.985,0.002
69,0.001
69.015,-0.002
69.03,-0.017
69.045,0.021
69.06,0.017
69.075,-0.002
69.09,0.001
69.105,0.011
69.12,0.012
69.135,0.011
69.15,0.019
69.165,0.011
69.18,0.008
69.195,-0.002
69.21,-0.005
69.225,0.003
69.24,0.009
69.255,-0.008
69.27,-0.017
69.285,-0.005
69.3,-0.018
69.315,0
69.33,0.033
69.345,0.019
69.36,0.024
69.375,0.028
69.39,0.018
69.405,0.012
69.42,0.023
69.435,0.015
69.45,0.004
69.465,-0.005
69.48,-0.013
69.495,0.019
69.51,0.032
69.525,0.039
69.54,0.019
69.555,0.04
69.57,0.042
69.585,0.027
69.6,0.021
69.615,0.016
69.63,0.03
69.645,0.045
69.66,0.059
69.675,0.042
69.69,0.038
69.705,0.068
69.72,0.043
69.735,0.053
69.75,0.06
69.765,0.054
69.78,0.034
69.795,0.058
69.81,0.06
69.825,0.041
69.84,0.047
69.855,0.033
69.87,0.04
69.885,0.062
69.9,0.053
69.915,0.032
69.93,0.021
69.945,0.042
69.96,0.077
69.975,0.05
69.99,0.033
70.005,0.089
70.02,0.079
70.035,0.057
70.05,0.051
70.065,0.037
70.08,0.039
70.095,0.06
70.11,0.071
70.125,0.07
70.14,0.078
70.155,0.077
70.17,0.047
70.185,0.076
70.2,0.076
70.215,0.095
70.23,0.075
70.245,0.068
70.26,0.099
70.275,0.102
70.29,0.11
70.305,0.11
70.32,0.102
70.335,0.088
70.35,0.111
70.365,0.122
70.38,0.09
70.395,0.106
70.41,0.107
70.425,0.12
70.44,0.14
70.455,0.143
70.47,0.137
70.485,0.111
70.5,0.1
70.515,0.134
70.53,0.163
70.545,0.162
70.56,0.16
70.575,0.142
70.59,0.149
70.605,0.129
70.62,0.146
70.635,0.19
70.65,0.175
70.665,0.164
70.68,0.187
70.695,0.191
70.71,0.202
70.725,0.196
70.74,0.179
70.755,0.186
70.77,0.182
70.785,0.169
70.8,0.169
70.815,0.221
70.83,0.228
70.845,0.217
70.86,0.203
70.875,0.226
70.89,0.232
70.905,0.215
70.92,0.204
70.935,0.219
70.95,0.222
70.965,0.199
70.98,0.199
70.995,0.209
71.01,0.197
71.025,0.184
71.04,0.177
71.055,0.171
71.07,0.196
71.085,0.229
71.1,0.211
71.115,0.19
71.13,0.2
71.145,0.242
71.16,0.23
71.175,0.19
71.19,0.182
71.205,0.165
71.22,0.166
71.235,0.185
71.25,0.215
71.265,0.197
71.28,0.165
71.295,0.159
71.31,0.174
71.325,0.164
71.34,0.17
71.355,0.169
71.37,0.184
71.385,0.182
71.4,0.189
71.415,0.182
71.43,0.175
71.445,0.164
71.46,0.175
71.475,0.187
71.49,0.168
71.505,0.158
71.52,0.158
71.535,0.159
71.55,0.169
71.565,0.135
71.58,0.138
71.595,0.138
71.61,0.149
71.625,0.154
71.64,0.162
71.655,0.149
71.67,0.129
71.685,0.165
71.7,0.165
71.715,0.176
71.73,0.191
71.745,0.2
71.76,0.194
71.775,0.179
71.79,0.168
71.805,0.173
71.82,0.166
71.835,0.176
71.85,0.188
71.865,0.191
71.88,0.211
71.895,0.189
71.91,0.169
71.925,0.167
71.94,0.178
71.955,0.198
71.97,0.209
71.985,0.214
72,0.19
72.015,0.196
72.03,0.212
72.045,0.202
72.06,0.213
72.075,0.231
72.09,0.202
72.105,0.194
72.12,0.208
72.135,0.214
72.15,0.183
72.165,0.191
72.18,0.201
72.195,0.211
72.21,0.178
72.225,0.203
72.24,0.212
72.255,0.202
72.27,0.2
72.285,0.189
72.3,0.204
72.315,0.223
72.33,0.237
72.345,0.216
72.36,0.182
72.375,0.194
72.39,0.232
72.405,0.241
72.42,0.227
72.435,0.218
72.45,0.22
72.465,0.228
72.48,0.224
72.495,0.207
72.51,0.218
72.525,0.221
72.54,0.224
72.555,0.227
72.57,0.228
72.585,0.218
72.6,0.227
72.615,0.25
72.63,0.25
72.645,0.272
72.66,0.279
72.675,0.265
72.69,0.247
72.705,0.248
72.72,0.249
72.735,0.241
72.75,0.272
72.765,0.274
72.78,0.261
72.795,0.257
72.81,0.251
72.825,0.261
72.84,0.243
72.855,0.256
72.87,0.28
72.885,0.249
72.9,0.251
72.915,0.26
72.93,0.274
72.945,0.255
72.96,0.24
72.975,0.272
72.99,0.276
73.005,0.286
73.02,0.303
73.035,0.343
73.05,0.344
73.065,0.333
73.08,0.295
73.095,0.307
73.11,0.325
73.125,0.33
73.14,0.325
73.155,0.337
73.17,0.35
73.185,0.345
73.2,0.349
73.215,0.347
73.23,0.35
73.245,0.336
73.26,0.357
73.275,0.374
73.29,0.377
73.305,0.385
73.32,0.384
73.335,0.394
73.35,0.399
73.365,0.396
73.38,0.412
73.395,0.42
73.41,0.449
73.425,0.458
73.44,0.412
73.455,0.416
73.47,0.459
73.485,0.468
73.5,0.469
73.515,0.466
73.53,0.475
73.545,0.489
73.56,0.485
73.575,0.495
73.59,0.503
73.605,0.51
73.62,0.531
73.635,0.528
73.65,0.539
73.665,0.556
73.68,0.553
73.695,0.538
73.71,0.57
73.725,0.583
73.74,0.575
73.755,0.606
73.77,0.605
73.785,0.603
73.8,0.619
73.815,0.614
73.83,0.625
73.845,0.613
73.86,0.625
73.875,0.66
73.89,0.65
73.905,0.658
73.92,0.66
73.935,0.647
73.95,0.655
73.965,0.628
73.98,0.637
73.995,0.634
74.01,0.639
74.025,0.612
74.04,0.63
74.055,0.646
74.07,0.626
74.085,0.62
74.1,0.643
74.115,0.649
74.13,0.654
74.145,0.632
74.16,0.609
74.175,0.608
74.19,0.614
74.205,0.627
74.22,0.632
74.235,0.612
74.25,0.618
74.265,0.608
74.28,0.623
74.295,0.618
74.31,0.595
74.325,0.598
74.34,0.599
74.355,0.608
74.37,0.625
74.385,0.604
74.4,0.588
74.415,0.599
74.43,0.582
74.445,0.572
74.46,0.582
74.475,0.594
74.49,0.612
74.505,0.614
74.52,0.597
74.535,0.619
74.55,0.62
74.565,0.595
74.58,0.594
74.595,0.606
74.61,0.596
74.625,0.57
74.64,0.575
74.655,0.61
74.67,0.604
74.685,0.598
74.7,0.619
74.715,0.614
74.73,0.619
74.745,0.611
74.76,0.61
74.775,0.622
74.79,0.625
74.805,0.615
74.82,0.596
74.835,0.605
74.85,0.619
74.865,0.614
74.88,0.601
74.895,0.633
74.91,0.639
74.925,0.635
74.94,0.63
74.955,0.625
74.97,0.636
74.985,0.628
75,0.608
75.015,0.589
75.03,0.598
75.045,0.598
75.06,0.59
75.075,0.519
75.09,0.511
75.105,0.496
75.12,0.519
75.135,0.51
75.15,0.52
75.165,0.483
75.18,0.51
75.195,0.515
75.21,0.485
75.225,0.483
75.24,0.489
75.255,0.571
75.27,0.571
75.285,0.553
75.3,0.583
75.315,0.583
75.33,0.499
75.345,0
