24.99,26.216
25.005,25.806
25.02,25.903
25.035,26.166
25.05,26.424
25.065,26.377
25.08,26.206
25.095,26.02
25.11,26.212
25.125,25.986
25.14,26.119
25.155,26.416
25.17,26.579
25.185,26.486
25.2,25.926
25.215,26.148
25.23,26.36
25.245,26.214
25.26,26.303
25.275,26.232
25.29,26.128
25.305,25.981
25.32,25.758
25.335,26.174
25.35,26.414
25.365,26.248
25.38,26.175
25.395,26.153
25.41,25.925
25.425,25.886
25.44,25.744
25.455,26.01
25.47,26.249
25.485,26.193
25.5,25.954
25.515,26.206
25.53,26.02
25.545,25.623
25.56,25.792
25.575,26.075
25.59,25.839
25.605,26.112
25.62,26.334
25.635,26.216
25.65,26.022
25.665,26.041
25.68,26.156
25.695,25.782
25.71,25.702
25.725,25.903
25.74,26.093
25.755,25.873
25.77,25.853
25.785,26.032
25.8,26.026
25.815,25.878
25.83,25.635
25.845,25.68
25.86,25.751
25.875,25.602
25.89,25.523
25.905,25.708
25.92,25.793
25.935,25.934
25.95,25.973
25.965,25.877
25.98,25.839
25.995,25.871
26.01,25.85
26.025,25.806
26.04,25.846
26.055,25.882
26.07,25.805
26.085,25.772
26.1,25.949
26.115,25.906
26.13,25.8
26.145,25.766
26.16,25.8
26.175,25.696
26.19,25.718
26.205,25.744
26.22,25.661
26.235,25.618
26.25,25.654
26.265,25.705
26.28,25.609
26.295,25.658
26.31,25.814
26.325,25.872
26.34,25.653
26.355,25.571
26.37,25.706
26.385,25.653
26.4,25.639
26.415,25.526
26.43,25.497
26.445,25.577
26.46,25.766
26.475,25.598
26.49,25.548
26.505,25.644
26.52,25.638
26.535,25.619
26.55,25.5
26.565,25.466
26.58,25.5
26.595,25.473
26.61,25.617
26.625,25.732
26.64,25.621
26.655,25.601
26.67,25.57
26.685,25.543
26.7,25.563
26.715,25.425
26.73,25.485
26.745,25.529
26.76,25.411
26.775,25.323
26.79,25.294
26.805,25.441
26.82,25.545
26.835,25.536
26.85,25.488
26.865,25.404
26.88,25.455
26.895,25.515
26.91,25.438
26.925,25.407
26.94,25.507
26.955,25.328
26.97,25.407
26.985,25.533
27,25.548
27.015,25.532
27.03,25.34
27.045,25.376
27.06,25.316
27.075,25.313
27.09,25.393
27.105,25.409
27.12,25.462
27.135,25.537
27.15,25.474
27.165,25.493
27.18,25.486
27.195,25.308
27.21,25.188
27.225,25.279
27.24,25.179
27.255,25.335
27.27,25.379
27.285,25.178
27.3,25.111
27.315,25.221
27.33,25.24
27.345,25.263
27.36,25.246
27.375,25.204
27.39,25.315
27.405,25.264
27.42,25.146
27.435,25.207
27.45,25.239
27.465,25.183
27.48,25.21
27.495,25.12
27.51,25.161
27.525,25.116
27.54,25.194
27.555,25.258
27.57,25.305
27.585,25.22
27.6,25.025
27.615,25.008
27.63,25.22
27.645,25.285
27.66,25.243
27.675,25.123
27.69,25.104
27.705,25.213
27.72,25.308
27.735,25.334
27.75,25.256
27.765,25.408
27.78,25.205
27.795,25.135
27.81,25.181
27.825,25.196
27.84,25.253
27.855,25.133
27.87,25.061
27.885,25.229
27.9,25.438
27.915,25.286
27.93,25.137
27.945,25.168
27.96,25.139
27.975,25.109
27.99,25.127
28.005,25.294
28.02,25.304
28.035,25.158
28.05,25.18
28.065,25.131
28.08,25.112
28.095,25.138
28.11,25.154
28.125,25.145
28.14,25.185
28.155,25.259
28.17,25.196
28.185,25.099
28.2,25.073
28.215,24.97
28.23,24.974
28.245,24.999
28.26,25.015
28.275,25.104
28.29,25.196
28.305,25.202
28.32,25.173
28.335,25.246
28.35,25.151
28.365,25.028
28.38,25.122
28.395,24.913
28.41,25.071
28.425,25.28
28.44,25.173
28.455,25.071
28.47,25.276
28.485,25.219
28.5,25.266
28.515,25.136
28.53,25.066
28.545,25.127
28.56,25.041
28.575,25.062
28.59,25.157
28.605,25.179
28.62,25.003
28.635,25.175
28.65,25.241
28.665,25.23
28.68,25.203
28.695,25.149
28.71,25.266
28.725,25.198
28.74,25.055
28.755,25.019
28.77,25.036
28.785,25.151
28.8,25.194
28.815,25.065
28.83,25.04
28.845,25.001
28.86,25.034
28.875,25.18
28.89,25.224
28.905,25.259
28.92,25.168
28.935,25.24
28.95,25.255
28.965,25.313
28.98,25.32
28.995,25.274
29.01,25.286
29.025,25.261
29.04,25.151
29.055,25.068
29.07,25.207
29.085,25.349
29.1,25.301
29.115,25.269
29.13,25.187
29.145,25.137
29.16,25.066
29.175,25.139
29.19,25.405
29.205,25.366
29.22,25.276
29.235,25.253
29.25,25.298
29.265,25.281
29.28,25.374
29.295,25.403
29.31,25.444
29.325,25.463
29.34,25.418
29.355,25.418
29.37,25.31
29.385,25.273
29.4,25.374
29.415,25.367
29.43,25.375
29.445,25.316
29.46,25.362
29.475,25.345
29.49,25.301
29.505,25.338
29.52,25.36
29.535,25.493
29.55,25.524
29.565,25.506
29.58,25.408
29.595,25.278
29.61,25.182
29.625,25.264
29.64,25.332
29.655,25.324
29.67,25.506
29.685,25.456
29.7,25.311
29.715,25.301
29.73,25.436
29.745,25.481
29.76,25.439
29.775,25.573
29.79,25.464
29.805,25.355
29.82,25.437
29.835,25.514
29.85,25.614
29.865,25.682
29.88,25.576
29.895,25.604
29.91,25.647
29.925,25.795
29.94,25.711
29.955,25.502
29.97,25.603
29.985,25.596
30,25.604
30.015,25.698
30.03,25.647
30.045,25.563
30.06,25.567
30.075,25.479
30.09,25.418
30.105,25.542
30.12,25.601
30.135,25.633
30.15,25.585
30.165,25.678
30.18,25.717
30.195,25.649
30.21,25.611
30.225,25.627
30.24,25.618
30.255,25.616
30.27,25.472
30.285,25.541
30.3,25.496
30.315,25.351
30.33,25.519
30.345,25.509
30.36,25.355
30.375,25.471
30.39,25.489
30.405,25.45
30.42,25.444
30.435,25.393
30.45,25.44
30.465,25.481
30.48,25.414
30.495,25.467
30.51,25.353
30.525,25.324
30.54,25.511
30.555,25.426
30.57,25.281
30.585,25.318
30.6,25.51
30.615,25.456
30.63,25.349
30.645,25.4
30.66,25.353
30.675,25.379
30.69,25.376
30.705,25.401
30.72,25.411
30.735,25.367
30.75,25.436
30.765,25.553
30.78,25.403
30.795,25.48
30.81,25.395
30.825,25.23
30.84,25.186
30.855,25.31
30.87,25.124
30.885,25.103
30.9,25.127
30.915,25.212
30.93,25.348
30.945,25.264
30.96,25.24
30.975,25.235
30.99,25.126
31.005,25.127
31.02,25.036
31.035,24.908
31.05,25.05
31.065,24.987
31.08,25.091
31.095,25.066
31.11,24.968
31.125,25.07
31.14,25.186
31.155,25.098
31.17,25.071
31.185,25.109
31.2,25.034
31.215,25.07
31.23,25.007
31.245,24.942
31.26,25.105
31.275,25.089
31.29,25
31.305,25.082
31.32,25.046
31.335,25.096
31.35,25.012
31.365,25.054
31.38,25.202
31.395,25.179
31.41,25.019
31.425,24.963
31.44,24.991
31.455,24.888
31.47,24.919
31.485,24.951
31.5,24.821
31.515,24.925
31.53,25.016
31.545,24.987
31.56,24.965
31.575,24.976
31.59,24.887
31.605,24.879
31.62,24.929
31.635,25.042
31.65,24.98
31.665,24.927
31.68,24.977
31.695,24.901
31.71,24.841
31.725,24.819
31.74,24.97
31.755,24.936
31.77,24.869
31.785,24.831
31.8,24.79
31.815,24.771
31.83,24.721
31.845,24.631
31.86,24.817
31.875,24.897
31.89,24.831
31.905,24.909
31.92,24.972
31.935,24.928
31.95,25.017
31.965,24.885
31.98,24.79
31.995,24.977
32.01,24.919
32.025,24.725
32.04,24.692
32.055,24.747
32.07,24.785
32.085,24.806
32.1,24.873
32.115,24.885
32.13,24.755
32.145,24.73
32.16,24.893
32.175,24.765
32.19,24.77
32.205,24.897
32.22,24.76
32.235,24.798
32.25,24.81
32.265,24.778
32.28,24.745
32.295,24.669
32.31,24.653
32.325,24.774
32.34,24.802
32.355,24.707
32.37,24.741
32.385,24.696
32.4,24.679
32.415,24.79
32.43,24.932
32.445,24.869
32.46,24.635
32.475,24.744
32.49,24.8
32.505,24.807
32.52,24.923
32.535,24.787
32.55,24.716
32.565,24.666
32.58,24.575
32.595,24.881
32.61,25.022
32.625,24.86
32.64,24.717
32.655,24.677
32.67,24.774
32.685,24.668
32.7,24.796
32.715,24.898
32.73,24.801
32.745,24.74
32.76,24.849
32.775,24.987
32.79,24.969
32.805,24.886
32.82,24.765
32.835,24.683
32.85,24.748
32.865,24.905
32.88,24.934
32.895,24.813
32.91,24.798
32.925,24.878
32.94,24.877
32.955,24.802
32.97,24.7
32.985,24.788
33,24.657
33.015,24.505
33.03,24.699
33.045,24.766
33.06,24.772
33.075,24.873
33.09,24.845
33.105,24.911
33.12,24.854
33.135,24.811
33.15,24.84
33.165,24.822
33.18,24.829
33.195,24.843
33.21,24.913
33.225,24.912
33.24,24.883
33.255,24.839
33.27,24.814
33.285,24.835
33.3,24.97
33.315,25.064
33.33,24.921
33.345,24.886
33.36,24.769
33.375,24.734
33.39,24.926
33.405,24.978
33.42,24.902
33.435,24.84
33.45,24.91
33.465,24.788
33.48,24.901
33.495,24.991
33.51,24.82
33.525,24.621
33.54,24.8
33.555,24.783
33.57,24.77
33.585,24.843
33.6,24.864
33.615,24.954
33.63,24.996
33.645,24.874
33.66,24.822
33.675,24.839
33.69,24.834
33.705,25.039
33.72,24.979
33.735,24.801
33.75,24.856
33.765,24.832
33.78,24.909
33.795,25.15
33.81,24.996
33.825,24.965
33.84,24.998
33.855,25.102
33.87,25.184
33.885,25.151
33.9,25.224
33.915,25.08
33.93,25.04
33.945,25.04
33.96,25.213
33.975,25.053
33.99,24.876
34.005,25.003
34.02,25.054
34.035,25.13
34.05,25.224
34.065,25.377
34.08,25.462
34.095,25.258
34.11,25.148
34.125,25.184
34.14,25.307
34.155,25.351
34.17,25.268
34.185,25.209
34.2,25.06
34.215,25.202
34.23,25.223
34.245,25.149
34.26,25.349
34.275,25.547
34.29,25.449
34.305,25.309
34.32,25.317
34.335,25.472
34.35,25.387
34.365,25.382
34.38,25.614
34.395,25.794
34.41,25.743
34.425,25.671
34.44,25.596
34.455,25.739
34.47,25.784
34.485,25.628
34.5,25.613
34.515,25.705
34.53,25.789
34.545,25.973
34.56,26.036
34.575,25.897
34.59,25.952
34.605,25.924
34.62,25.892
34.635,25.886
34.65,26.032
34.665,25.996
34.68,25.937
34.695,26.079
34.71,26.136
34.725,26.139
34.74,26.197
34.755,26.33
34.77,26.406
34.785,26.377
34.8,26.357
34.815,26.446
34.83,26.514
34.845,26.529
34.86,26.582
34.875,26.426
34.89,26.523
34.905,26.553
34.92,26.618
34.935,26.591
34.95,26.647
34.965,26.688
34.98,26.691
34.995,26.75
35.01,26.574
35.025,26.614
35.04,26.723
35.055,26.873
35.07,26.796
35.085,26.793
35.1,26.879
35.115,27.001
35.13,26.881
35.145,26.919
35.16,26.991
35.175,26.975
35.19,26.94
35.205,27.033
35.22,26.991
35.235,26.876
35.25,26.977
35.265,27.035
35.28,27.079
35.295,27.022
35.31,27.004
35.325,27.054
35.34,27.148
35.355,27.007
35.37,26.879
35.385,26.962
35.4,27.121
35.415,26.882
35.43,26.976
35.445,27.122
35.46,27.019
35.475,27.079
35.49,26.976
35.505,27.054
35.52,26.992
35.535,27.034
35.55,26.978
35.565,26.999
35.58,27.029
35.595,26.954
35.61,26.973
35.625,26.796
35.64,26.83
35.655,26.887
35.67,26.807
35.685,26.749
35.7,26.67
35.715,26.691
35.73,26.846
35.745,26.856
35.76,26.722
35.775,26.678
35.79,26.744
35.805,26.69
35.82,26.617
35.835,26.638
35.85,26.622
35.865,26.55
35.88,26.51
35.895,26.416
35.91,26.374
35.925,26.338
35.94,26.35
35.955,26.398
35.97,26.333
35.985,26.296
36,26.231
36.015,26.143
36.03,26.206
36.045,26.206
36.06,26.102
36.075,26.115
36.09,26.022
36.105,25.958
36.12,25.973
36.135,25.958
36.15,25.97
36.165,25.848
36.18,25.927
36.195,25.879
36.21,26.053
36.225,25.96
36.24,25.633
36.255,25.648
36.27,25.773
36.285,25.674
36.3,25.74
36.315,25.89
36.33,25.868
36.345,25.593
36.36,25.623
36.375,25.596
36.39,25.566
36.405,25.644
36.42,25.504
36.435,25.493
36.45,25.423
36.465,25.435
36.48,25.518
36.495,25.541
36.51,25.444
36.525,25.504
36.54,25.59
36.555,25.588
36.57,25.456
36.585,25.569
36.6,25.774
36.615,25.573
36.63,25.525
36.645,25.648
36.66,25.516
36.675,25.599
36.69,25.541
36.705,25.547
36.72,25.806
36.735,25.881
36.75,25.725
36.765,25.52
36.78,25.457
36.795,25.464
36.81,25.619
36.825,25.615
36.84,25.575
36.855,25.59
36.87,25.576
36.885,25.414
36.9,25.354
36.915,25.425
36.93,25.481
36.945,25.339
36.96,25.258
36.975,25.299
36.99,25.322
37.005,25.29
37.02,25.271
37.035,25.282
37.05,25.228
37.065,24.997
37.08,25.01
37.095,24.921
37.11,24.943
37.125,25.054
37.14,24.969
37.155,24.691
37.17,24.709
37.185,24.719
37.2,24.651
37.215,24.56
37.23,24.589
37.245,24.676
37.26,24.544
37.275,24.55
37.29,24.537
37.305,24.444
37.32,24.347
37.335,24.2
37.35,24.171
37.365,24.271
37.38,24.279
37.395,24.163
37.41,24.267
37.425,24.314
37.44,24.247
37.455,24.189
37.47,24.132
37.485,24.131
37.5,24.209
37.515,24.186
37.53,24.098
37.545,24.25
37.56,24.325
37.575,24.237
37.59,24.159
37.605,24.129
37.62,24.003
37.635,24.031
37.65,24.097
37.665,24.021
37.68,24.024
37.695,23.983
37.71,23.976
37.725,24.101
37.74,24.037
37.755,23.978
37.77,24.005
37.785,23.93
37.8,23.872
37.815,23.779
37.83,23.831
37.845,23.827
37.86,23.974
37.875,24.078
37.89,23.992
37.905,23.86
37.92,23.855
37.935,23.968
37.95,23.979
37.965,23.944
37.98,23.789
37.995,23.871
38.01,23.955
38.025,23.832
38.04,23.86
38.055,23.995
38.07,23.912
38.085,23.891
38.1,23.983
38.115,23.904
38.13,23.906
38.145,23.793
38.16,23.72
38.175,23.799
38.19,23.928
38.205,23.844
38.22,23.831
38.235,23.759
38.25,23.81
38.265,23.883
38.28,23.874
38.295,23.896
38.31,23.761
38.325,23.735
38.34,23.718
38.355,23.785
38.37,23.755
38.385,23.707
38.4,23.826
38.415,23.848
38.43,23.854
38.445,23.884
38.46,23.904
38.475,23.831
38.49,23.832
38.505,23.809
38.52,23.792
38.535,23.621
38.55,23.505
38.565,23.535
38.58,23.711
38.595,23.686
38.61,23.727
38.625,23.756
38.64,23.928
38.655,23.836
38.67,23.595
38.685,23.548
38.7,23.58
38.715,23.783
38.73,23.756
38.745,23.583
38.76,23.669
38.775,23.794
38.79,23.781
38.805,23.758
38.82,23.734
38.835,23.736
38.85,23.721
38.865,23.755
38.88,23.755
38.895,23.647
38.91,23.597
38.925,23.668
38.94,23.617
38.955,23.648
38.97,23.708
38.985,23.651
39,23.651
39.015,23.803
39.03,23.642
39.045,23.68
39.06,23.629
39.075,23.551
39.09,23.701
39.105,23.696
39.12,23.714
39.135,23.872
39.15,23.736
39.165,23.44
39.18,23.375
39.195,23.519
39.21,23.691
39.225,23.657
39.24,23.763
39.255,23.692
39.27,23.58
39.285,23.563
39.3,23.6
39.315,23.612
39.33,23.673
39.345,23.519
39.36,23.542
39.375,23.488
39.39,23.57
39.405,23.72
39.42,23.714
39.435,23.575
39.45,23.59
39.465,23.588
39.48,23.642
39.495,23.772
39.51,23.667
39.525,23.499
39.54,23.461
39.555,23.462
39.57,23.563
39.585,23.638
39.6,23.379
39.615,23.382
39.63,23.524
39.645,23.54
39.66,23.707
39.675,23.806
39.69,23.744
39.705,23.511
39.72,23.491
39.735,23.367
39.75,23.364
39.765,23.603
39.78,23.621
39.795,23.671
39.81,23.742
39.825,23.768
39.84,23.664
39.855,23.552
39.87,23.395
39.885,23.364
39.9,23.583
39.915,23.608
39.93,23.589
39.945,23.48
39.96,23.451
39.975,23.507
39.99,23.578
40.005,23.638
40.02,23.623
40.035,23.54
40.05,23.497
40.065,23.422
40.08,23.501
40.095,23.644
40.11,23.671
40.125,23.522
40.14,23.43
40.155,23.455
40.17,23.432
40.185,23.467
40.2,23.597
40.215,23.342
40.23,23.184
40.245,23.406
40.26,23.506
40.275,23.283
40.29,23.364
40.305,23.528
40.32,23.437
40.335,23.387
40.35,23.449
40.365,23.448
40.38,23.476
40.395,23.453
40.41,23.477
40.425,23.609
40.44,23.515
40.455,23.427
40.47,23.419
40.485,23.301
40.5,23.363
40.515,23.418
40.53,23.293
40.545,23.292
40.56,23.418
40.575,23.556
40.59,23.43
40.605,23.418
40.62,23.36
40.635,23.416
40.65,23.441
40.665,23.335
40.68,23.373
40.695,23.517
40.71,23.455
40.725,23.565
40.74,23.582
40.755,23.509
40.77,23.366
40.785,23.328
40.8,23.389
40.815,23.435
40.83,23.471
40.845,23.323
40.86,23.45
40.875,23.442
40.89,23.439
40.905,23.404
40.92,23.468
40.935,23.47
40.95,23.31
40.965,23.316
40.98,23.459
40.995,23.365
41.01,23.354
41.025,23.363
41.04,23.365
41.055,23.316
41.07,23.374
41.085,23.568
41.1,23.55
41.115,23.536
41.13,23.551
41.145,23.467
41.16,23.375
41.175,23.346
41.19,23.432
41.205,23.376
41.22,23.415
41.235,23.244
41.25,23.196
41.265,23.436
41.28,23.464
41.295,23.493
41.31,23.293
41.325,23.217
41.34,23.364
41.355,23.386
41.37,23.466
41.385,23.481
41.4,23.48
41.415,23.522
41.43,23.515
41.445,23.596
41.46,23.373
41.475,23.358
41.49,23.258
41.505,23.349
41.52,23.572
41.535,23.518
41.55,23.477
41.565,23.33
41.58,23.399
41.595,23.428
41.61,23.349
41.625,23.486
41.64,23.55
41.655,23.533
41.67,23.58
41.685,23.717
41.7,23.713
41.715,23.6
41.73,23.635
41.745,23.632
41.76,23.651
41.775,23.736
41.79,23.762
41.805,23.688
41.82,23.646
41.835,23.691
41.85,23.682
41.865,23.763
41.88,23.868
41.895,23.747
41.91,23.819
41.925,23.868
41.94,23.88
41.955,23.832
41.97,23.924
41.985,24.012
42,23.899
42.015,23.798
42.03,23.749
42.045,23.773
42.06,23.851
42.075,23.91
42.09,23.914
42.105,23.856
42.12,23.781
42.135,23.807
42.15,23.877
42.165,23.789
42.18,23.886
42.195,23.922
42.21,23.848
42.225,23.805
42.24,23.862
42.255,23.853
42.27,23.921
42.285,24.028
42.3,24.093
42.315,23.976
42.33,24.092
42.345,24.088
42.36,23.923
42.375,23.842
42.39,23.894
42.405,23.964
42.42,24.102
42.435,24.076
42.45,24.19
42.465,24.292
42.48,24.374
42.495,24.338
42.51,24.474
42.525,24.68
42.54,24.511
42.555,24.494
42.57,24.671
42.585,24.586
42.6,24.584
42.615,24.709
42.63,24.916
42.645,24.895
42.66,24.868
42.675,25.093
42.69,25.191
42.705,25.037
42.72,25.134
42.735,25.309
42.75,25.285
42.765,25.218
42.78,25.317
42.795,25.382
42.81,25.483
42.825,25.607
42.84,25.473
42.855,25.374
42.87,25.475
42.885,25.498
42.9,25.342
42.915,25.395
42.93,25.466
42.945,25.479
42.96,25.459
42.975,25.605
42.99,25.645
43.005,25.39
43.02,25.36
43.035,25.316
43.05,25.21
43.065,25.177
43.08,25.021
43.095,24.927
43.11,24.933
43.125,24.678
43.14,24.633
43.155,24.696
43.17,24.795
43.185,24.54
43.2,24.346
43.215,24.095
43.23,24.189
43.245,24.208
43.26,24.113
43.275,24.027
43.29,24.09
43.305,24.045
43.32,24.002
43.335,23.889
43.35,23.977
43.365,23.91
43.38,23.832
43.395,23.729
43.41,23.829
43.425,23.758
43.44,23.672
43.455,23.583
43.47,23.576
43.485,23.505
43.5,23.422
43.515,23.364
43.53,23.586
43.545,23.592
43.56,23.537
43.575,23.425
43.59,23.391
43.605,23.52
43.62,23.458
43.635,23.493
43.65,23.653
43.665,23.633
43.68,23.492
43.695,23.473
43.71,23.452
43.725,23.272
43.74,23.386
43.755,23.571
43.77,23.424
43.785,23.374
43.8,23.388
43.815,23.292
43.83,23.338
43.845,23.322
43.86,23.215
43.875,23.134
43.89,23.073
43.905,23.106
43.92,23.156
43.935,23.083
43.95,23.187
43.965,23.2
43.98,23.028
43.995,23.01
44.01,22.976
44.025,23.117
44.04,23.065
44.055,22.996
44.07,23.105
44.085,23.157
44.1,23.147
44.115,23.08
44.13,23.127
44.145,23.097
44.16,23.063
44.175,23.015
44.19,23.024
44.205,23.168
44.22,23.19
44.235,23.01
44.25,22.983
44.265,23.004
44.28,22.889
44.295,22.914
44.31,22.881
44.325,23.028
44.34,23.112
44.355,22.968
44.37,22.921
44.385,23.045
44.4,23.183
44.415,23.071
44.43,23.012
44.445,22.973
44.46,22.85
44.475,23.01
44.49,23.079
44.505,23.05
44.52,23.105
44.535,22.977
44.55,22.935
44.565,22.999
44.58,22.936
44.595,22.94
44.61,22.794
44.625,22.702
44.64,22.863
44.655,22.862
44.67,22.917
44.685,22.82
44.7,22.879
44.715,22.932
44.73,22.924
44.745,22.887
44.76,22.914
44.775,22.874
44.79,22.899
44.805,22.722
44.82,22.716
44.835,23.027
44.85,23.022
44.865,22.922
44.88,22.855
44.895,22.892
44.91,22.81
44.925,22.862
44.94,22.884
44.955,22.725
44.97,22.805
44.985,23.003
45,22.871
45.015,22.743
45.03,22.778
45.045,22.769
45.06,22.843
45.075,22.759
45.09,22.859
45.105,22.969
45.12,22.927
45.135,22.804
45.15,22.762
45.165,22.786
45.18,22.742
45.195,22.723
45.21,22.767
45.225,22.807
45.24,22.939
45.255,22.822
45.27,22.814
45.285,22.73
45.3,22.7
45.315,22.712
45.33,22.721
45.345,22.732
45.36,22.801
45.375,22.849
45.39,22.78
45.405,22.86
45.42,22.859
45.435,22.716
45.45,22.645
45.465,22.669
45.48,22.715
45.495,22.87
45.51,22.822
45.525,22.742
45.54,22.85
45.555,22.879
45.57,22.726
45.585,22.62
45.6,22.738
45.615,22.823
45.63,22.824
45.645,22.89
45.66,22.868
45.675,22.77
45.69,22.735
45.705,22.745
45.72,22.674
45.735,22.649
45.75,22.692
45.765,22.768
45.78,22.778
45.795,22.635
45.81,22.638
45.825,22.741
45.84,22.858
45.855,22.911
45.87,22.767
45.885,22.729
45.9,22.67
45.915,22.73
45.93,22.721
45.945,22.618
45.96,22.607
45.975,22.582
45.99,22.616
46.005,22.71
46.02,22.757
46.035,22.758
46.05,22.829
46.065,22.7
46.08,22.73
46.095,22.735
46.11,22.585
46.125,22.684
46.14,22.781
46.155,22.804
46.17,22.689
46.185,22.604
46.2,22.628
46.215,22.769
46.23,22.809
46.245,22.712
46.26,22.75
46.275,22.642
46.29,22.606
46.305,22.662
46.32,22.585
46.335,22.6
46.35,22.613
46.365,22.595
46.38,22.562
46.395,22.585
46.41,22.621
46.425,22.644
46.44,22.682
46.455,22.716
46.47,22.731
46.485,22.785
46.5,22.788
46.515,22.711
46.53,22.611
46.545,22.543
46.56,22.634
46.575,22.84
46.59,22.741
46.605,22.785
46.62,22.886
46.635,22.838
46.65,22.829
46.665,22.721
46.68,22.592
46.695,22.537
46.71,22.595
46.725,22.586
46.74,22.503
46.755,22.509
46.77,22.604
46.785,22.575
46.8,22.612
46.815,22.61
46.83,22.61
46.845,22.61
46.86,22.513
46.875,22.526
46.89,22.723
46.905,22.59
46.92,22.527
46.935,22.599
46.95,22.588
46.965,22.503
46.98,22.515
46.995,22.486
47.01,22.542
47.025,22.601
47.04,22.679
47.055,22.654
47.07,22.669
47.085,22.648
47.1,22.533
47.115,22.475
47.13,22.62
47.145,22.589
47.16,22.582
47.175,22.631
47.19,22.549
47.205,22.409
47.22,22.425
47.235,22.588
47.25,22.685
47.265,22.663
47.28,22.607
47.295,22.591
47.31,22.614
47.325,22.47
47.34,22.401
47.355,22.52
47.37,22.495
47.385,22.477
47.4,22.409
47.415,22.475
47.43,22.348
47.445,22.472
47.46,22.534
47.475,22.547
47.49,22.447
47.505,22.436
47.52,22.575
47.535,22.581
47.55,22.421
47.565,22.386
47.58,22.439
47.595,22.579
47.61,22.698
47.625,22.752
47.64,22.686
47.655,22.558
47.67,22.533
47.685,22.484
47.7,22.627
47.715,22.758
47.73,22.849
47.745,22.692
47.76,22.519
47.775,22.434
47.79,22.5
47.805,22.601
47.82,22.558
47.835,22.43
47.85,22.457
47.865,22.401
47.88,22.389
47.895,22.568
47.91,22.58
47.925,22.473
47.94,22.481
47.955,22.457
47.97,22.46
47.985,22.637
48,22.495
48.015,22.407
48.03,22.41
48.045,22.401
48.06,22.461
48.075,22.619
48.09,22.547
48.105,22.414
48.12,22.598
48.135,22.652
48.15,22.487
48.165,22.567
48.18,22.597
48.195,22.635
48.21,22.588
48.225,22.55
48.24,22.541
48.255,22.455
48.27,22.459
48.285,22.513
48.3,22.599
48.315,22.49
48.33,22.495
48.345,22.523
48.36,22.513
48.375,22.399
48.39,22.381
48.405,22.524
48.42,22.475
48.435,22.482
48.45,22.453
48.465,22.5
48.48,22.489
48.495,22.445
48.51,22.44
48.525,22.365
48.54,22.403
48.555,22.49
48.57,22.5
48.585,22.402
48.6,22.366
48.615,22.308
48.63,22.405
48.645,22.392
48.66,22.434
48.675,22.367
48.69,22.394
48.705,22.441
48.72,22.498
48.735,22.365
48.75,22.509
48.765,22.46
48.78,22.312
48.795,22.337
48.81,22.47
48.825,22.42
48.84,22.362
48.855,22.331
48.87,22.413
48.885,22.481
48.9,22.418
48.915,22.495
48.93,22.404
48.945,22.309
48.96,22.362
48.975,22.438
48.99,22.367
49.005,22.452
49.02,22.466
49.035,22.43
49.05,22.376
49.065,22.247
49.08,22.344
49.095,22.335
49.11,22.293
49.125,22.349
49.14,22.351
49.155,22.394
49.17,22.451
49.185,22.358
49.2,22.248
49.215,22.179
49.23,22.282
49.245,22.399
49.26,22.261
49.275,22.342
49.29,22.29
49.305,22.261
49.32,22.281
49.335,22.319
49.35,22.385
49.365,22.388
49.38,22.546
49.395,22.477
49.41,22.27
49.425,22.236
49.44,22.221
49.455,22.319
49.47,22.395
49.485,22.536
49.5,22.533
49.515,22.441
49.53,22.322
49.545,22.343
49.56,22.419
49.575,22.21
49.59,22.304
49.605,22.286
49.62,22.336
49.635,22.474
49.65,22.354
49.665,22.21
49.68,22.185
49.695,22.295
49.71,22.329
49.725,22.423
49.74,22.413
49.755,22.238
49.77,22.255
49.785,22.26
49.8,22.327
49.815,22.332
49.83,22.32
49.845,22.178
49.86,22.2
49.875,22.278
49.89,22.295
49.905,22.267
49.92,22.255
49.935,22.179
49.95,22.219
49.965,22.21
49.98,22.255
49.995,22.321
50.01,22.338
50.025,22.26
50.04,22.366
50.055,22.391
50.07,22.349
50.085,22.21
50.1,22.251
50.115,22.255
50.13,22.255
50.145,22.284
50.16,22.27
50.175,22.165
50.19,22.168
50.205,22.265
50.22,22.337
50.235,22.311
50.25,22.258
50.265,22.235
50.28,22.213
50.295,22.225
50.31,22.179
50.325,22.103
50.34,22.121
50.355,22.229
50.37,22.31
50.385,22.325
50.4,22.288
50.415,22.186
50.43,22.168
50.445,22.27
50.46,22.18
50.475,22.208
50.49,22.204
50.505,22.181
50.52,22.387
50.535,22.426
50.55,22.402
50.565,22.177
50.58,22.218
50.595,22.168
50.61,22.182
50.625,22.24
50.64,22.275
50.655,22.199
50.67,22.194
50.685,22.311
50.7,22.255
50.715,22.213
50.73,22.218
50.745,22.25
50.76,22.133
50.775,22.184
50.79,22.269
50.805,22.191
50.82,22.256
50.835,22.104
50.85,22.194
50.865,22.207
50.88,21.996
50.895,22.072
50.91,22.189
50.925,22.362
50.94,22.249
50.955,22.17
50.97,22.118
50.985,22.021
51,22.175
51.015,22.264
51.03,22.26
51.045,22.271
51.06,22.209
51.075,22.175
51.09,22.133
51.105,22.19
51.12,22.238
51.135,22.099
51.15,22.051
51.165,22.08
51.18,22.027
51.195,22.009
51.21,22.055
51.225,22.169
51.24,22.318
51.255,22.322
51.27,22.27
51.285,21.998
51.3,22.006
51.315,22.169
51.33,22.172
51.345,22.172
51.36,22.097
51.375,22.077
51.39,22.161
51.405,22.157
51.42,22.179
51.435,22.146
51.45,22.121
51.465,22.218
51.48,22.12
51.495,22.268
51.51,22.299
51.525,22.161
51.54,22.13
51.555,22.18
51.57,22.178
51.585,22.227
51.6,22.188
51.615,22.096
51.63,22.067
51.645,22.074
51.66,22.112
51.675,22.187
51.69,22.151
51.705,22.127
51.72,22.143
51.735,22.116
51.75,22.227
51.765,22.134
51.78,21.988
51.795,21.986
51.81,22.055
51.825,22.17
51.84,22.134
51.855,22.158
51.87,22.175
51.885,22.092
51.9,22.081
51.915,22.178
51.93,22.23
51.945,22.137
51.96,22.17
51.975,22.079
51.99,22.144
52.005,22.206
52.02,22.035
52.035,21.965
52.05,22.028
52.065,22.042
52.08,22.09
52.095,22.169
52.11,22.092
52.125,22.077
52.14,22.14
52.155,21.999
52.17,21.935
52.185,21.957
52.2,21.963
52.215,22.085
52.23,22.195
52.245,22.153
52.26,22.126
52.275,22.16
52.29,22.147
52.305,22.092
52.32,22.119
52.335,22.163
52.35,22.201
52.365,22.13
52.38,22.055
52.395,22.083
52.41,22.043
52.425,22.055
52.44,22.155
52.455,22.293
52.47,22.31
52.485,22.119
52.5,22.055
52.515,22.11
52.53,22.167
52.545,22.125
52.56,22.115
52.575,22.159
52.59,22.175
52.605,22.14
52.62,22.229
52.635,22.177
52.65,22.222
52.665,22.116
52.68,22.05
52.695,22.076
52.71,21.999
52.725,22.076
52.74,22.108
52.755,22.042
52.77,22.069
52.785,21.95
52.8,21.915
52.815,22.117
52.83,22.202
52.845,22.144
52.86,22.184
52.875,22.125
52.89,22.136
52.905,22.192
52.92,22.153
52.935,22.117
52.95,22.066
52.965,22.066
52.98,22.089
52.995,22.158
53.01,22.265
53.025,22.159
53.04,21.903
53.055,22.044
53.07,22.175
53.085,22.119
53.1,22.096
53.115,22.05
53.13,22.14
53.145,22.272
53.16,22.178
53.175,22.2
53.19,22.109
53.205,22.019
53.22,22.118
53.235,22.132
53.25,22.106
53.265,22.264
53.28,22.204
53.295,22.117
53.31,22.198
53.325,22.205
53.34,22.123
53.355,22.202
53.37,22.103
53.385,22.064
53.4,22.135
53.415,22.316
53.43,22.264
53.445,22.182
53.46,22.145
53.475,22.199
53.49,22.13
53.505,22.265
53.52,22.123
53.535,22.083
53.55,22.263
53.565,22.081
53.58,21.943
53.595,22.02
53.61,22.14
53.625,22.225
53.64,22.078
53.655,21.956
53.67,22.049
53.685,22.184
53.7,22.083
53.715,22.149
53.73,22.079
53.745,22.003
53.76,22.125
53.775,22.134
53.79,21.934
53.805,22.092
53.82,22.115
53.835,22.067
53.85,21.988
53.865,22.14
53.88,22.134
53.895,21.948
53.91,22.08
53.925,22.025
53.94,21.819
53.955,21.812
53.97,21.953
53.985,21.93
54,21.931
54.015,22.035
54.03,22.044
54.045,21.997
54.06,22.056
54.075,21.988
54.09,21.965
54.105,22.014
54.12,22.054
54.135,21.98
54.15,22.005
54.165,21.973
54.18,22.013
54.195,21.91
54.21,21.974
54.225,22.322
54.24,22.242
54.255,22.008
54.27,21.985
54.285,21.896
54.3,21.859
54.315,22.051
54.33,22.021
54.345,21.935
54.36,22.003
54.375,22.012
54.39,22.095
54.405,22.003
54.42,21.878
54.435,21.901
54.45,21.966
54.465,21.915
54.48,21.932
54.495,21.942
54.51,21.922
54.525,21.959
54.54,21.982
54.555,22.161
54.57,22.15
54.585,22.028
54.6,22.001
54.615,21.892
54.63,21.891
54.645,21.989
54.66,21.978
54.675,22.048
54.69,22.057
54.705,21.991
54.72,22.023
54.735,21.939
54.75,21.758
54.765,21.868
54.78,21.897
54.795,21.887
54.81,21.831
54.825,21.913
54.84,21.95
54.855,21.977
54.87,21.854
54.885,21.849
54.9,22.039
54.915,21.87
54.93,21.815
54.945,21.984
54.96,22.008
54.975,21.86
54.99,21.82
55.005,22.049
55.02,21.948
55.035,21.767
55.05,21.796
55.065,21.869
55.08,21.78
55.095,21.835
55.11,21.862
55.125,21.942
55.14,21.952
55.155,21.952
55.17,21.92
55.185,21.948
55.2,21.957
55.215,21.963
55.23,21.996
55.245,21.926
55.26,21.87
55.275,21.891
55.29,21.949
55.305,22.004
55.32,22.065
55.335,22.041
55.35,21.956
55.365,21.942
55.38,21.877
55.395,21.869
55.41,21.924
55.425,21.932
55.44,21.922
55.455,21.892
55.47,21.772
55.485,22.018
55.5,21.982
55.515,21.844
55.53,21.859
55.545,22.005
55.56,22.05
55.575,22.029
55.59,22.075
55.605,21.989
55.62,21.91
55.635,21.898
55.65,21.84
55.665,21.838
55.68,21.878
55.695,21.925
55.71,21.916
55.725,21.882
55.74,21.968
55.755,22.066
55.77,22.077
55.785,22.051
55.8,21.835
55.815,21.767
55.83,21.856
55.845,21.954
55.86,22.047
55.875,22.081
55.89,22.065
55.905,21.943
55.92,21.808
55.935,21.938
55.95,22.092
55.965,22.075
55.98,22.078
55.995,21.944
56.01,22.054
56.025,22.069
56.04,22.014
56.055,21.976
56.07,22.023
56.085,22.092
56.1,21.957
56.115,21.982
56.13,22.004
56.145,22.002
56.16,22.044
56.175,22.034
56.19,22.085
56.205,22.078
56.22,22.116
56.235,22.067
56.25,21.998
56.265,22.059
56.28,22.085
56.295,22.255
56.31,22.275
56.325,22.091
56.34,22.125
56.355,22.294
56.37,22.217
56.385,22.037
56.4,22.092
56.415,22.122
56.43,22.168
56.445,22.124
56.46,22.156
56.475,22.217
56.49,22.215
56.505,22.258
56.52,22.248
56.535,22.266
56.55,22.273
56.565,22.168
56.58,22.261
56.595,22.245
56.61,22.03
56.625,22.069
56.64,22.27
56.655,22.268
56.67,22.209
56.685,22.09
56.7,22.138
56.715,22.207
56.73,22.281
56.745,22.471
56.76,22.295
56.775,22.115
56.79,22.134
56.805,22.191
56.82,22.218
56.835,22.259
56.85,22.272
56.865,22.144
56.88,22.172
56.895,22.208
56.91,22.202
56.925,22.141
56.94,22.196
56.955,22.376
56.97,22.355
56.985,22.285
57,22.201
57.015,22.232
57.03,22.118
57.045,22.121
57.06,22.132
57.075,22.189
57.09,22.248
57.105,22.294
57.12,22.378
57.135,22.255
57.15,22.176
57.165,22.106
57.18,22.124
57.195,22.238
57.21,22.172
57.225,22.008
57.24,22.173
57.255,22.289
57.27,22.359
57.285,22.353
57.3,22.279
57.315,22.275
57.33,22.172
57.345,22.118
57.36,22.185
57.375,22.206
57.39,22.184
57.405,22.055
57.42,22.051
57.435,22.182
57.45,22.108
57.465,22.179
57.48,22.162
57.495,22.196
57.51,22.224
57.525,22.062
57.54,22.047
57.555,22.047
57.57,21.996
57.585,22.058
57.6,22.193
57.615,22.057
57.63,21.875
57.645,21.878
57.66,21.925
57.675,21.956
57.69,21.961
57.705,22.032
57.72,22.246
57.735,22.15
57.75,22.021
57.765,22.035
57.78,21.907
57.795,21.831
57.81,21.859
57.825,21.852
57.84,21.842
57.855,21.949
57.87,21.999
57.885,22.014
57.9,21.91
57.915,21.911
57.93,21.936
57.945,21.833
57.96,21.892
57.975,21.902
57.99,21.798
58.005,21.838
58.02,21.873
58.035,21.807
58.05,21.973
58.065,21.978
58.08,21.707
58.095,21.721
58.11,21.739
58.125,21.675
58.14,21.689
58.155,21.875
58.17,21.896
58.185,21.714
58.2,21.643
58.215,21.78
58.23,21.612
58.245,21.678
58.26,21.714
58.275,21.61
58.29,21.606
58.305,21.531
58.32,21.65
58.335,21.814
58.35,21.796
58.365,21.698
58.38,21.66
58.395,21.667
58.41,21.641
58.425,21.56
58.44,21.564
58.455,21.74
58.47,21.763
58.485,21.618
58.5,21.501
58.515,21.586
58.53,21.662
58.545,21.639
58.56,21.47
58.575,21.503
58.59,21.59
58.605,21.439
58.62,21.373
58.635,21.471
58.65,21.654
58.665,21.609
58.68,21.625
58.695,21.503
58.71,21.612
58.725,21.606
58.74,21.717
58.755,21.728
58.77,21.678
58.785,21.636
58.8,21.584
58.815,21.721
58.83,21.738
58.845,21.554
58.86,21.475
58.875,21.502
58.89,21.544
58.905,21.533
58.92,21.535
58.935,21.519
58.95,21.437
58.965,21.422
58.98,21.487
58.995,21.446
59.01,21.397
59.025,21.577
59.04,21.597
59.055,21.423
59.07,21.498
59.085,21.482
59.1,21.554
59.115,21.61
59.13,21.519
59.145,21.516
59.16,21.593
59.175,21.519
59.19,21.496
59.205,21.405
59.22,21.367
59.235,21.422
59.25,21.506
59.265,21.551
59.28,21.557
59.295,21.551
59.31,21.461
59.325,21.378
59.34,21.401
59.355,21.361
59.37,21.425
59.385,21.417
59.4,21.341
59.415,21.312
59.43,21.413
59.445,21.399
59.46,21.384
59.475,21.436
59.49,21.334
59.505,21.249
59.52,21.295
59.535,21.354
59.55,21.419
59.565,21.463
59.58,21.421
59.595,21.344
59.61,21.395
59.625,21.403
59.64,21.452
59.655,21.594
59.67,21.544
59.685,21.418
59.7,21.34
59.715,21.364
59.73,21.514
59.745,21.468
59.76,21.436
59.775,21.421
59.79,21.359
59.805,21.34
59.82,21.384
59.835,21.393
59.85,21.314
59.865,21.346
59.88,21.403
59.895,21.417
59.91,21.477
59.925,21.474
59.94,21.322
59.955,21.344
59.97,21.378
59.985,21.38
60,21.442
60.015,21.449
60.03,21.381
60.045,21.225
60.06,21.226
60.075,21.113
60.09,21.339
60.105,21.501
60.12,21.44
60.135,21.358
60.15,21.35
60.165,21.432
60.18,21.281
60.195,21.227
60.21,21.387
60.225,21.461
60.24,21.19
60.255,21.141
60.27,21.349
60.285,21.316
60.3,21.473
60.315,21.523
60.33,21.289
60.345,21.314
60.36,21.443
60.375,21.294
60.39,21.285
60.405,21.333
60.42,21.409
60.435,21.43
60.45,21.332
60.465,21.419
60.48,21.366
60.495,21.382
60.51,21.409
60.525,21.501
60.54,21.472
60.555,21.347
60.57,21.249
60.585,21.368
60.6,21.369
60.615,21.33
60.63,21.454
60.645,21.507
60.66,21.397
60.675,21.35
60.69,21.396
60.705,21.475
60.72,21.613
60.735,21.591
60.75,21.518
60.765,21.435
60.78,21.451
60.795,21.565
60.81,21.542
60.825,21.549
60.84,21.527
60.855,21.387
60.87,21.472
60.885,21.602
60.9,21.667
60.915,21.654
60.93,21.613
60.945,21.45
60.96,21.457
60.975,21.47
60.99,21.518
61.005,21.61
61.02,21.675
61.035,21.658
61.05,21.645
61.065,21.695
61.08,21.656
61.095,21.649
61.11,21.552
61.125,21.589
61.14,21.71
61.155,21.684
61.17,21.465
61.185,21.475
61.2,21.63
61.215,21.512
61.23,21.439
61.245,21.519
61.26,21.501
61.275,21.659
61.29,21.591
61.305,21.553
61.32,21.578
61.335,21.555
61.35,21.635
61.365,21.534
61.38,21.581
61.395,21.722
61.41,21.689
61.425,21.565
61.44,21.461
61.455,21.419
61.47,21.385
61.485,21.535
61.5,21.606
61.515,21.555
61.53,21.54
61.545,21.715
61.56,21.811
61.575,21.709
61.59,21.506
61.605,21.6
61.62,21.59
61.635,21.505
61.65,21.455
61.665,21.569
61.68,21.653
61.695,21.681
61.71,21.766
61.725,21.713
61.74,21.632
61.755,21.683
61.77,21.766
61.785,21.814
61.8,21.916
61.815,22.033
61.83,22.059
61.845,22.024
61.86,22.16
61.875,22.285
61.89,22.289
61.905,22.316
61.92,22.369
61.935,22.309
61.95,22.384
61.965,22.54
61.98,22.622
61.995,22.754
62.01,22.798
62.025,22.849
62.04,22.871
62.055,23.149
62.07,23.183
62.085,23.19
62.1,23.236
62.115,23.256
62.13,23.451
62.145,23.443
62.16,23.637
62.175,23.723
62.19,23.566
62.205,23.615
62.22,23.687
62.235,23.778
62.25,23.789
62.265,23.77
62.28,23.783
62.295,23.907
62.31,24.004
62.325,23.96
62.34,23.787
62.355,23.65
62.37,23.69
62.385,23.775
62.4,23.741
62.415,23.543
62.43,23.516
62.445,23.571
62.46,23.54
62.475,23.464
62.49,23.431
62.505,23.521
62.52,23.461
62.535,23.477
62.55,23.23
62.565,23.089
62.58,23.053
62.595,22.977
62.61,22.991
62.625,22.959
62.64,22.878
62.655,22.792
62.67,22.806
62.685,22.75
62.7,22.708
62.715,22.554
62.73,22.683
62.745,22.712
62.76,22.483
62.775,22.426
62.79,22.308
62.805,22.188
62.82,22.283
62.835,22.297
62.85,22.241
62.865,22.278
62.88,22.354
62.895,22.316
62.91,22.033
62.925,22.007
62.94,22.109
62.955,22.108
62.97,22.061
62.985,22.014
63,21.982
63.015,22.118
63.03,22.107
63.045,21.955
63.06,21.852
63.075,21.935
63.09,21.828
63.105,21.88
63.12,21.886
63.135,21.754
63.15,21.768
63.165,21.843
63.18,21.88
63.195,21.691
63.21,21.687
63.225,21.714
63.24,21.866
63.255,21.743
63.27,21.659
63.285,21.576
63.3,21.618
63.315,21.565
63.33,21.492
63.345,21.544
63.36,21.532
63.375,21.625
63.39,21.52
63.405,21.442
63.42,21.476
63.435,21.477
63.45,21.386
63.465,21.501
63.48,21.5
63.495,21.453
63.51,21.412
63.525,21.492
63.54,21.464
63.555,21.31
63.57,21.243
63.585,21.301
63.6,21.26
63.615,21.293
63.63,21.323
63.645,21.285
63.66,21.304
63.675,21.171
63.69,21.161
63.705,21.111
63.72,21.036
63.735,21.187
63.75,21.259
63.765,21.175
63.78,21.22
63.795,21.216
63.81,21.159
63.825,21.087
63.84,21.119
63.855,21.045
63.87,21.035
63.885,21.187
63.9,21.317
63.915,21.113
63.93,21.154
63.945,21.144
63.96,21.127
63.975,21.048
63.99,20.977
64.005,21.067
64.02,21.092
64.035,20.984
64.05,20.906
64.065,20.946
64.08,21.014
64.095,21.203
64.11,21.264
64.125,21.002
64.14,20.95
64.155,21.042
64.17,20.932
64.185,20.926
64.2,20.966
64.215,21.018
64.23,20.991
64.245,21.031
64.26,20.996
64.275,20.972
64.29,21.013
64.305,20.822
64.32,20.738
64.335,20.624
64.35,20.783
64.365,20.953
64.38,20.99
64.395,21.075
64.41,21.025
64.425,20.918
64.44,21
64.455,20.955
64.47,20.959
64.485,20.984
64.5,20.924
64.515,20.95
64.53,21.002
64.545,20.852
64.56,20.872
64.575,20.957
64.59,20.909
64.605,20.899
64.62,20.836
64.635,20.872
64.65,20.963
64.665,20.978
64.68,21.058
64.695,21.099
64.71,20.907
64.725,20.743
64.74,20.748
64.755,20.763
64.77,20.858
64.785,20.842
64.8,20.777
64.815,20.799
64.83,20.889
64.845,20.932
64.86,20.838
64.875,20.757
64.89,20.779
64.905,20.711
64.92,20.747
64.935,20.763
64.95,20.916
64.965,20.965
64.98,20.743
64.995,20.761
65.01,20.832
65.025,20.905
65.04,20.821
65.055,20.807
65.07,20.721
65.085,20.761
65.1,20.78
65.115,20.734
65.13,20.839
65.145,20.755
65.16,20.642
65.175,20.704
65.19,20.783
65.205,20.774
65.22,20.769
65.235,20.933
65.25,20.8
65.265,20.702
65.28,20.74
65.295,20.808
65.31,20.841
65.325,20.796
65.34,20.755
65.355,20.817
65.37,20.845
65.385,20.759
65.4,20.714
65.415,20.792
65.43,20.696
65.445,20.704
65.46,20.676
65.475,20.693
65.49,20.747
65.505,20.646
65.52,20.672
65.535,20.571
65.55,20.648
65.565,20.714
65.58,20.745
65.595,20.783
65.61,20.766
65.625,20.786
65.64,20.891
65.655,20.791
65.67,20.713
65.685,20.753
65.7,20.742
65.715,20.654
65.73,20.575
65.745,20.639
65.76,20.781
65.775,20.764
65.79,20.757
65.805,20.885
65.82,20.865
65.835,20.697
65.85,20.695
65.865,20.832
65.88,20.868
65.895,20.827
65.91,20.762
65.925,20.729
65.94,20.843
65.955,20.833
65.97,20.765
65.985,20.743
66,20.7
66.015,20.738
66.03,20.617
66.045,20.567
66.06,20.66
66.075,20.672
66.09,20.655
66.105,20.817
66.12,20.8
66.135,20.661
66.15,20.683
66.165,20.802
66.18,20.865
66.195,20.802
66.21,20.672
66.225,20.758
66.24,20.688
66.255,20.637
66.27,20.765
66.285,20.649
66.3,20.628
66.315,20.706
66.33,20.684
66.345,20.656
66.36,20.676
66.375,20.688
66.39,20.708
66.405,20.729
66.42,20.626
66.435,20.537
66.45,20.558
66.465,20.749
66.48,20.84
66.495,20.806
66.51,20.74
66.525,20.568
66.54,20.465
66.555,20.51
66.57,20.727
66.585,20.651
66.6,20.659
66.615,20.621
66.63,20.704
66.645,20.584
66.66,20.557
66.675,20.643
66.69,20.687
66.705,20.648
66.72,20.61
66.735,20.5
66.75,20.428
66.765,20.568
66.78,20.748
66.795,20.674
66.81,20.815
66.825,20.758
66.84,20.669
66.855,20.591
66.87,20.643
66.885,20.728
66.9,20.723
66.915,20.667
66.93,20.632
66.945,20.59
66.96,20.488
66.975,20.49
66.99,20.588
67.005,20.594
67.02,20.52
67.035,20.536
67.05,20.502
67.065,20.49
67.08,20.481
67.095,20.529
67.11,20.5
67.125,20.584
67.14,20.633
67.155,20.691
67.17,20.588
67.185,20.617
67.2,20.653
67.215,20.5
67.23,20.557
67.245,20.606
67.26,20.577
67.275,20.625
67.29,20.679
67.305,20.637
67.32,20.493
67.335,20.546
67.35,20.673
67.365,20.58
67.38,20.513
67.395,20.51
67.41,20.57
67.425,20.511
67.44,20.547
67.455,20.545
67.47,20.497
67.485,20.479
67.5,20.494
67.515,20.627
67.53,20.623
67.545,20.57
67.56,20.441
67.575,20.37
67.59,20.45
67.605,20.421
67.62,20.602
67.635,20.649
67.65,20.587
67.665,20.488
67.68,20.531
67.695,20.574
67.71,20.577
67.725,20.495
67.74,20.479
67.755,20.434
67.77,20.487
67.785,20.571
67.8,20.467
67.815,20.552
67.83,20.536
67.845,20.539
67.86,20.552
67.875,20.394
67.89,20.425
67.905,20.573
67.92,20.466
67.935,20.518
67.95,20.534
67.965,20.455
67.98,20.459
67.995,20.521
68.01,20.446
68.025,20.408
68.04,20.451
68.055,20.414
68.07,20.415
68.085,20.667
68.1,20.65
68.115,20.516
68.13,20.579
68.145,20.465
68.16,20.475
68.175,20.461
68.19,20.326
68.205,20.33
68.22,20.46
68.235,20.487
68.25,20.466
68.265,20.342
68.28,20.429
68.295,20.483
68.31,20.55
68.325,20.543
68.34,20.446
68.355,20.46
68.37,20.508
68.385,20.623
68.4,20.563
68.415,20.421
68.43,20.54
68.445,20.647
68.46,20.509
68.475,20.367
68.49,20.208
68.505,20.372
68.52,20.429
68.535,20.447
68.55,20.441
68.565,20.443
68.58,20.408
68.595,20.292
68.61,20.345
68.625,20.414
68.64,20.5
68.655,20.404
68.67,20.42
68.685,20.533
68.7,20.536
68.715,20.513
68.73,20.469
68.745,20.363
68.76,20.397
68.775,20.421
68.79,20.461
68.805,20.42
68.82,20.399
68.835,20.424
68.85,20.316
68.865,20.372
68.88,20.572
68.895,20.563
68.91,20.461
68.925,20.487
68.94,20.458
68.955,20.46
68.97,20.4
68.985,20.415
69,20.419
69.015,20.446
69.03,20.499
69.045,20.382
69.06,20.379
69.075,20.412
69.09,20.365
69.105,20.527
69.12,20.433
69.135,20.425
69.15,20.567
69.165,20.425
69.18,20.389
69.195,20.394
69.21,20.386
69.225,20.48
69.24,20.472
69.255,20.496
69.27,20.44
69.285,20.295
69.3,20.293
69.315,20.422
69.33,20.472
69.345,20.475
69.36,20.479
69.375,20.361
69.39,20.294
69.405,20.419
69.42,20.409
69.435,20.407
69.45,20.39
69.465,20.349
69.48,20.369
69.495,20.383
69.51,20.262
69.525,20.44
69.54,20.437
69.555,20.364
69.57,20.267
69.585,20.361
69.6,20.405
69.615,20.41
69.63,20.462
69.645,20.453
69.66,20.381
69.675,20.32
69.69,20.258
69.705,20.236
69.72,20.238
69.735,20.26
69.75,20.333
69.765,20.313
69.78,20.358
69.795,20.41
69.81,20.37
69.825,20.314
69.84,20.469
69.855,20.543
69.87,20.462
69.885,20.266
69.9,20.28
69.915,20.441
69.93,20.429
69.945,20.412
69.96,20.348
69.975,20.386
69.99,20.22
70.005,20.167
70.02,20.303
70.035,20.47
70.05,20.426
70.065,20.312
70.08,20.277
70.095,20.263
70.11,20.39
70.125,20.373
70.14,20.263
70.155,20.417
70.17,20.5
70.185,20.44
70.2,20.411
70.215,20.404
70.23,20.325
70.245,20.242
70.26,20.266
70.275,20.296
70.29,20.328
70.305,20.424
70.32,20.402
70.335,20.287
70.35,20.314
70.365,20.241
70.38,20.335
70.395,20.417
70.41,20.388
70.425,20.381
70.44,20.441
70.455,20.359
70.47,20.314
70.485,20.341
70.5,20.326
70.515,20.258
70.53,20.239
70.545,20.369
70.56,20.405
70.575,20.318
70.59,20.282
70.605,20.38
70.62,20.408
70.635,20.343
70.65,20.27
70.665,20.213
70.68,20.152
70.695,20.341
70.71,20.28
70.725,20.032
70.74,20.116
70.755,20.192
70.77,20.263
70.785,20.212
70.8,20.243
70.815,20.287
70.83,20.325
70.845,20.519
70.86,20.471
70.875,20.332
70.89,20.266
70.905,20.301
70.92,20.281
70.935,20.267
70.95,20.3
70.965,20.283
70.98,20.196
70.995,20.265
71.01,20.19
71.025,20.17
71.04,20.258
71.055,20.258
71.07,20.199
71.085,20.164
71.1,20.185
71.115,20.212
71.13,20.304
71.145,20.223
71.16,20.12
71.175,20.098
71.19,20.262
71.205,20.349
71.22,20.386
71.235,20.33
71.25,20.323
71.265,20.233
71.28,20.055
71.295,20.102
71.31,20.241
71.325,20.146
71.34,20.13
71.355,20.052
71.37,20.132
71.385,20.272
71.4,20.226
71.415,20.241
71.43,20.258
71.445,20.095
71.46,20.154
71.475,20.114
71.49,20.121
71.505,20.292
71.52,20.247
71.535,20.24
71.55,20.288
71.565,20.306
71.58,20.337
71.595,20.262
71.61,20.42
71.625,20.329
71.64,20.188
71.655,20.192
71.67,20.167
71.685,20.357
71.7,20.423
71.715,20.381
71.73,20.346
71.745,20.267
71.76,20.143
71.775,20.253
71.79,20.128
71.805,20.123
71.82,20.064
71.835,20.113
71.85,20.215
71.865,20.339
71.88,20.261
71.895,20.255
71.91,20.121
71.925,20.155
71.94,20.275
71.955,20.298
71.97,20.185
71.985,20.025
72,20.172
72.015,20.174
72.03,19.967
72.045,20.009
72.06,20.15
72.075,20.204
72.09,20.279
72.105,20.192
72.12,20.172
72.135,20.196
72.15,20.149
72.165,20.243
72.18,20.15
72.195,20.039
72.21,20.123
72.225,20.178
72.24,20.18
72.255,20.219
72.27,20.164
72.285,20.156
72.3,20.334
72.315,20.28
72.33,20.136
72.345,20.148
72.36,20.185
72.375,20.192
72.39,20.216
72.405,20.26
72.42,20.193
72.435,20.099
72.45,20.12
72.465,20.193
72.48,20.257
72.495,20.317
72.51,20.238
72.525,20.277
72.54,20.093
72.555,20.127
72.57,20.246
72.585,20.393
72.6,20.325
72.615,20.197
72.63,20.239
72.645,20.062
72.66,20.097
72.675,20.106
72.69,20.234
72.705,20.189
72.72,20.111
72.735,20.105
72.75,20.245
72.765,20.34
72.78,20.245
72.795,20.177
72.81,20.13
72.825,20.071
72.84,20.161
72.855,20.195
72.87,20.179
72.885,20.118
72.9,20.074
72.915,20.15
72.93,20.252
72.945,20.26
72.96,20.219
72.975,20.315
72.99,20.382
73.005,20.222
73.02,20.288
73.035,20.25
73.05,20.174
73.065,20.25
73.08,20.184
73.095,20.162
73.11,20.255
73.125,20.218
73.14,20.256
73.155,20.33
73.17,20.135
73.185,20.116
73.2,20.172
73.215,20.202
73.23,20.318
73.245,20.218
73.26,20.161
73.275,20.122
73.29,20.138
73.305,20.283
73.32,20.288
73.335,20.294
73.35,20.28
73.365,20.135
73.38,20.176
73.395,20.29
73.41,20.294
73.425,20.265
73.44,20.18
73.455,20.279
73.47,20.453
73.485,20.444
73.5,20.304
73.515,20.279
73.53,20.255
73.545,20.241
73.56,20.226
73.575,20.296
73.59,20.306
73.605,20.243
73.62,20.216
73.635,20.228
73.65,20.142
73.665,20.131
73.68,20.206
73.695,20.307
73.71,20.245
73.725,20.129
73.74,20.094
73.755,20.276
73.77,20.222
73.785,20.146
73.8,20.172
73.815,20.212
73.83,20.241
73.845,20.235
73.86,20.31
73.875,20.154
73.89,20.207
73.905,20.236
73.92,20.208
73.935,20.294
73.95,20.252
73.965,20.203
73.98,20.239
73.995,20.182
74.01,20.149
74.025,20.162
74.04,20.143
74.055,20.168
74.07,20.263
74.085,20.299
74.1,20.187
74.115,20.191
74.13,20.136
74.145,20.122
74.16,20.291
74.175,20.289
74.19,20.096
74.205,20.121
74.22,20.212
74.235,20.296
74.25,20.282
74.265,20.168
74.28,20.183
74.295,20.217
74.31,20.23
74.325,20.201
74.34,20.17
74.355,20.102
74.37,20.051
74.385,20.24
74.4,20.343
74.415,20.283
74.43,20.14
74.445,20.055
74.46,20.215
74.475,20.335
74.49,20.214
74.505,20.18
74.52,20.158
74.535,20.093
74.55,20.196
74.565,20.125
74.58,20.029
74.595,20.119
74.61,20.128
74.625,20.096
74.64,20.306
74.655,20.23
74.67,20.204
74.685,20.167
74.7,20.152
74.715,20.138
74.73,20.071
74.745,20.062
74.76,20.14
74.775,20.243
74.79,20.278
74.805,20.195
74.82,20.114
74.835,20.034
74.85,20.088
74.865,20.124
74.88,20.201
74.895,20.134
74.91,20.098
74.925,20.11
74.94,20.091
74.955,20.057
74.97,20.188
74.985,20.203
75,19.903
75.015,19.866
75.03,19.695
75.045,19.45
75.06,19.435
75.075,19.524
75.09,19.481
75.105,19.41
75.12,19.443
75.135,19.349
75.15,19.447
75.165,19.532
75.18,19.371
75.195,19.297
75.21,19.197
75.225,19.09
75.24,19.081
75.255,19.249
75.27,19.104
75.285,18.872
75.3,18.794
75.315,19.297
75.33,19.161
75.345,18.622
