24.99,0
25.005,-0.259
25.02,-0.158
25.035,0.11
25.05,0.373
25.065,0.329
25.08,0.163
25.095,-0.018
25.11,0.178
25.125,-0.043
25.14,0.094
25.155,0.396
25.17,0.564
25.185,0.476
25.2,-0.08
25.215,0.147
25.23,0.363
25.245,0.222
25.26,0.316
25.275,0.249
25.29,0.15
25.305,0.008
25.32,-0.21
25.335,0.211
25.35,0.455
25.365,0.294
25.38,0.226
25.395,0.208
25.41,-0.015
25.425,-0.049
25.44,-0.186
25.455,0.084
25.47,0.329
25.485,0.277
25.5,0.043
25.515,0.3
25.53,0.119
25.545,-0.273
25.56,-0.099
25.575,0.188
25.59,-0.042
25.605,0.235
25.62,0.463
25.635,0.349
25.65,0.161
25.665,0.184
25.68,0.304
25.695,-0.065
25.71,-0.139
25.725,0.067
25.74,0.262
25.755,0.047
25.77,0.031
25.785,0.216
25.8,0.215
25.815,0.072
25.83,-0.166
25.845,-0.115
25.86,-0.039
25.875,-0.183
25.89,-0.257
25.905,-0.069
25.92,0.02
25.935,0.166
25.95,0.208
25.965,0.116
25.98,0.082
25.995,0.118
26.01,0.101
26.025,0.061
26.04,0.105
26.055,0.145
26.07,0.072
26.085,0.043
26.1,0.223
26.115,0.185
26.13,0.083
26.145,0.053
26.16,0.091
26.175,-0.008
26.19,0.017
26.205,0.047
26.22,-0.032
26.235,-0.07
26.25,-0.03
26.265,0.025
26.28,-0.067
26.295,-0.014
26.31,0.147
26.325,0.208
26.34,-0.006
26.355,-0.084
26.37,0.055
26.385,0.007
26.4,-0.003
26.415,-0.112
26.43,-0.137
26.445,-0.052
26.46,0.141
26.475,-0.023
26.49,-0.069
26.505,0.032
26.52,0.03
26.535,0.015
26.55,-0.099
26.565,-0.129
26.58,-0.091
26.595,-0.113
26.61,0.036
26.625,0.155
26.64,0.048
26.655,0.032
26.67,0.007
26.685,-0.016
26.7,0.008
26.715,-0.125
26.73,-0.061
26.745,-0.012
26.76,-0.126
26.775,-0.209
26.79,-0.234
26.805,-0.082
26.82,0.026
26.835,0.022
26.85,-0.022
26.865,-0.101
26.88,-0.045
26.895,0.019
26.91,-0.053
26.925,-0.079
26.94,0.025
26.955,-0.149
26.97,-0.065
26.985,0.065
27,0.085
27.015,0.074
27.03,-0.113
27.045,-0.073
27.06,-0.127
27.075,-0.126
27.09,-0.042
27.105,-0.02
27.12,0.038
27.135,0.117
27.15,0.059
27.165,0.083
27.18,0.081
27.195,-0.093
27.21,-0.208
27.225,-0.111
27.24,-0.207
27.255,-0.046
27.27,0.003
27.285,-0.193
27.3,-0.255
27.315,-0.14
27.33,-0.116
27.345,-0.089
27.36,-0.101
27.375,-0.138
27.39,-0.022
27.405,-0.068
27.42,-0.182
27.435,-0.115
27.45,-0.079
27.465,-0.13
27.48,-0.098
27.495,-0.183
27.51,-0.138
27.525,-0.178
27.54,-0.094
27.555,-0.025
27.57,0.026
27.585,-0.053
27.6,-0.244
27.615,-0.255
27.63,-0.042
27.645,0.025
27.66,-0.016
27.675,-0.134
27.69,-0.151
27.705,-0.041
27.72,0.056
27.735,0.083
27.75,0.008
27.765,0.16
27.78,-0.041
27.795,-0.109
27.81,-0.062
27.825,-0.044
27.84,0.014
27.855,-0.105
27.87,-0.174
27.885,-0.004
27.9,0.206
27.915,0.056
27.93,-0.091
27.945,-0.059
27.96,-0.086
27.975,-0.114
27.99,-0.094
28.005,0.075
28.02,0.087
28.035,-0.057
28.05,-0.034
28.065,-0.081
28.08,-0.098
28.095,-0.07
28.11,-0.052
28.125,-0.06
28.14,-0.017
28.155,0.059
28.17,-0.003
28.185,-0.097
28.2,-0.122
28.215,-0.223
28.23,-0.216
28.245,-0.189
28.26,-0.171
28.275,-0.08
28.29,0.013
28.305,0.021
28.32,-0.005
28.335,0.07
28.35,-0.022
28.365,-0.144
28.38,-0.048
28.395,-0.254
28.41,-0.097
28.425,0.112
28.44,0.006
28.455,-0.097
28.47,0.108
28.485,0.051
28.5,0.098
28.515,-0.032
28.53,-0.102
28.545,-0.041
28.56,-0.127
28.575,-0.107
28.59,-0.011
28.605,0.011
28.62,-0.165
28.635,0.007
28.65,0.073
28.665,0.062
28.68,0.035
28.695,-0.019
28.71,0.099
28.725,0.03
28.74,-0.112
28.755,-0.148
28.77,-0.131
28.785,-0.016
28.8,0.028
28.815,-0.101
28.83,-0.126
28.845,-0.164
28.86,-0.132
28.875,0.014
28.89,0.059
28.905,0.095
28.92,0.003
28.935,0.076
28.95,0.091
28.965,0.15
28.98,0.157
28.995,0.112
29.01,0.124
29.025,0.099
29.04,-0.011
29.055,-0.093
29.07,0.046
29.085,0.189
29.1,0.141
29.115,0.109
29.13,0.028
29.145,-0.021
29.16,-0.092
29.175,-0.019
29.19,0.248
29.205,0.209
29.22,0.12
29.235,0.098
29.25,0.143
29.265,0.127
29.28,0.22
29.295,0.25
29.31,0.291
29.325,0.311
29.34,0.267
29.355,0.267
29.37,0.159
29.385,0.123
29.4,0.225
29.415,0.219
29.43,0.228
29.445,0.169
29.46,0.216
29.475,0.199
29.49,0.156
29.505,0.194
29.52,0.217
29.535,0.35
29.55,0.382
29.565,0.365
29.58,0.268
29.595,0.138
29.61,0.044
29.625,0.127
29.64,0.195
29.655,0.187
29.67,0.371
29.685,0.322
29.7,0.177
29.715,0.169
29.73,0.304
29.745,0.351
29.76,0.309
29.775,0.444
29.79,0.336
29.805,0.228
29.82,0.311
29.835,0.389
29.85,0.49
29.865,0.559
29.88,0.455
29.895,0.483
29.91,0.528
29.925,0.676
29.94,0.594
29.955,0.385
29.97,0.488
29.985,0.482
30,0.491
30.015,0.586
30.03,0.536
30.045,0.453
30.06,0.459
30.075,0.372
30.09,0.312
30.105,0.438
30.12,0.498
30.135,0.53
30.15,0.484
30.165,0.578
30.18,0.618
30.195,0.551
30.21,0.515
30.225,0.532
30.24,0.525
30.255,0.524
30.27,0.381
30.285,0.452
30.3,0.408
30.315,0.264
30.33,0.434
30.345,0.425
30.36,0.273
30.375,0.39
30.39,0.409
30.405,0.372
30.42,0.368
30.435,0.318
30.45,0.366
30.465,0.409
30.48,0.343
30.495,0.398
30.51,0.285
30.525,0.258
30.54,0.446
30.555,0.363
30.57,0.22
30.585,0.258
30.6,0.452
30.615,0.399
30.63,0.294
30.645,0.347
30.66,0.301
30.675,0.329
30.69,0.328
30.705,0.354
30.72,0.366
30.735,0.324
30.75,0.395
30.765,0.514
30.78,0.366
30.795,0.444
30.81,0.36
30.825,0.197
30.84,0.155
30.855,0.281
30.87,0.097
30.885,0.078
30.9,0.103
30.915,0.19
30.93,0.328
30.945,0.246
30.96,0.224
30.975,0.22
30.99,0.113
31.005,0.117
31.02,0.027
31.035,-0.098
31.05,0.045
31.065,-0.015
31.08,0.09
31.095,0.067
31.11,-0.029
31.125,0.075
31.14,0.194
31.155,0.107
31.17,0.083
31.185,0.123
31.2,0.05
31.215,0.087
31.23,0.026
31.245,-0.036
31.26,0.129
31.275,0.116
31.29,0.028
31.305,0.112
31.32,0.078
31.335,0.131
31.35,0.049
31.365,0.093
31.38,0.243
31.395,0.223
31.41,0.064
31.425,0.011
31.44,0.041
31.455,-0.06
31.47,-0.026
31.485,0.008
31.5,-0.119
31.515,-0.013
31.53,0.08
31.545,0.054
31.56,0.034
31.575,0.047
31.59,-0.039
31.605,-0.045
31.62,0.007
31.635,0.123
31.65,0.064
31.665,0.012
31.68,0.065
31.695,-0.008
31.71,-0.066
31.725,-0.085
31.74,0.068
31.755,0.037
31.77,-0.028
31.785,-0.063
31.8,-0.102
31.815,-0.118
31.83,-0.166
31.845,-0.253
31.86,-0.067
31.875,0.016
31.89,-0.049
31.905,0.03
31.92,0.093
31.935,0.051
31.95,0.142
31.965,0.011
31.98,-0.084
31.995,0.105
32.01,0.048
32.025,-0.144
32.04,-0.177
32.055,-0.12
32.07,-0.08
32.085,-0.059
32.1,0.011
32.115,0.024
32.13,-0.105
32.145,-0.128
32.16,0.036
32.175,-0.09
32.19,-0.085
32.205,0.044
32.22,-0.092
32.235,-0.052
32.25,-0.039
32.265,-0.069
32.28,-0.101
32.295,-0.175
32.31,-0.189
32.325,-0.067
32.34,-0.038
32.355,-0.131
32.37,-0.095
32.385,-0.139
32.4,-0.154
32.415,-0.042
32.43,0.103
32.445,0.041
32.46,-0.192
32.475,-0.081
32.49,-0.023
32.505,-0.014
32.52,0.103
32.535,-0.031
32.55,-0.1
32.565,-0.149
32.58,-0.239
32.595,0.07
32.61,0.212
32.625,0.053
32.64,-0.089
32.655,-0.127
32.67,-0.029
32.685,-0.132
32.7,-0.003
32.715,0.102
32.73,0.006
32.745,-0.053
32.76,0.058
32.775,0.197
32.79,0.182
32.805,0.1
32.82,-0.018
32.835,-0.099
32.85,-0.032
32.865,0.127
32.88,0.158
32.895,0.039
32.91,0.026
32.925,0.108
32.94,0.109
32.955,0.036
32.97,-0.064
32.985,0.026
33,-0.103
33.015,-0.252
33.03,-0.059
33.045,0.009
33.06,0.017
33.075,0.118
33.09,0.09
33.105,0.157
33.12,0.101
33.135,0.058
33.15,0.088
33.165,0.07
33.18,0.079
33.195,0.093
33.21,0.163
33.225,0.164
33.24,0.135
33.255,0.092
33.27,0.067
33.285,0.089
33.3,0.225
33.315,0.32
33.33,0.178
33.345,0.144
33.36,0.027
33.375,-0.007
33.39,0.186
33.405,0.239
33.42,0.164
33.435,0.103
33.45,0.173
33.465,0.052
33.48,0.166
33.495,0.257
33.51,0.088
33.525,-0.111
33.54,0.069
33.555,0.053
33.57,0.041
33.585,0.115
33.6,0.137
33.615,0.228
33.63,0.271
33.645,0.15
33.66,0.099
33.675,0.117
33.69,0.114
33.705,0.319
33.72,0.261
33.735,0.083
33.75,0.139
33.765,0.117
33.78,0.195
33.795,0.437
33.81,0.284
33.825,0.255
33.84,0.288
33.855,0.394
33.87,0.478
33.885,0.445
33.9,0.52
33.915,0.377
33.93,0.338
33.945,0.34
33.96,0.514
33.975,0.355
33.99,0.179
34.005,0.308
34.02,0.36
34.035,0.437
34.05,0.532
34.065,0.687
34.08,0.774
34.095,0.571
34.11,0.462
34.125,0.5
34.14,0.624
34.155,0.67
34.17,0.588
34.185,0.531
34.2,0.383
34.215,0.526
34.23,0.549
34.245,0.476
34.26,0.678
34.275,0.877
34.29,0.781
34.305,0.643
34.32,0.652
34.335,0.809
34.35,0.725
34.365,0.723
34.38,0.956
34.395,1.138
34.41,1.088
34.425,1.018
34.44,0.945
34.455,1.089
34.47,1.136
34.485,0.982
34.5,0.968
34.515,1.062
34.53,1.148
34.545,1.333
34.56,1.398
34.575,1.261
34.59,1.317
34.605,1.291
34.62,1.261
34.635,1.257
34.65,1.405
34.665,1.371
34.68,1.314
34.695,1.457
34.71,1.516
34.725,1.521
34.74,1.581
34.755,1.717
34.77,1.794
34.785,1.767
34.8,1.749
34.815,1.84
34.83,1.91
34.845,1.927
34.86,1.982
34.875,1.828
34.89,1.927
34.905,1.959
34.92,2.026
34.935,2.001
34.95,2.059
34.965,2.103
34.98,2.107
34.995,2.169
35.01,1.995
35.025,2.037
35.04,2.148
35.055,2.3
35.07,2.225
35.085,2.224
35.1,2.312
35.115,2.437
35.13,2.319
35.145,2.359
35.16,2.433
35.175,2.42
35.19,2.387
35.205,2.482
35.22,2.443
35.235,2.329
35.25,2.433
35.265,2.493
35.28,2.54
35.295,2.485
35.31,2.47
35.325,2.522
35.34,2.618
35.355,2.479
35.37,2.353
35.385,2.439
35.4,2.6
35.415,2.364
35.43,2.46
35.445,2.609
35.46,2.508
35.475,2.571
35.49,2.471
35.505,2.551
35.52,2.492
35.535,2.536
35.55,2.482
35.565,2.506
35.58,2.538
35.595,2.466
35.61,2.487
35.625,2.313
35.64,2.349
35.655,2.41
35.67,2.333
35.685,2.277
35.7,2.2
35.715,2.224
35.73,2.382
35.745,2.394
35.76,2.263
35.775,2.222
35.79,2.291
35.805,2.239
35.82,2.169
35.835,2.193
35.85,2.18
35.865,2.111
35.88,2.073
35.895,1.982
35.91,1.943
35.925,1.91
35.94,1.925
35.955,1.975
35.97,1.914
35.985,1.879
36,1.817
36.015,1.732
36.03,1.798
36.045,1.801
36.06,1.699
36.075,1.715
36.09,1.626
36.105,1.565
36.12,1.583
36.135,1.57
36.15,1.586
36.165,1.467
36.18,1.548
36.195,1.504
36.21,1.68
36.225,1.59
36.24,1.267
36.255,1.285
36.27,1.413
36.285,1.317
36.3,1.386
36.315,1.54
36.33,1.521
36.345,1.249
36.36,1.281
36.375,1.258
36.39,1.232
36.405,1.312
36.42,1.176
36.435,1.168
36.45,1.101
36.465,1.116
36.48,1.202
36.495,1.229
36.51,1.136
36.525,1.198
36.54,1.288
36.555,1.289
36.57,1.161
36.585,1.277
36.6,1.485
36.615,1.288
36.63,1.243
36.645,1.369
36.66,1.241
36.675,1.327
36.69,1.273
36.705,1.282
36.72,1.544
36.735,1.622
36.75,1.47
36.765,1.269
36.78,1.209
36.795,1.22
36.81,1.378
36.825,1.378
36.84,1.342
36.855,1.36
36.87,1.35
36.885,1.191
36.9,1.134
36.915,1.21
36.93,1.269
36.945,1.13
36.96,1.053
36.975,1.098
36.99,1.124
37.005,1.096
37.02,1.081
37.035,1.096
37.05,1.046
37.065,0.818
37.08,0.835
37.095,0.75
37.11,0.775
37.125,0.89
37.14,0.809
37.155,0.534
37.17,0.557
37.185,0.57
37.2,0.507
37.215,0.419
37.23,0.452
37.245,0.543
37.26,0.415
37.275,0.425
37.29,0.415
37.305,0.326
37.32,0.233
37.335,0.091
37.35,0.065
37.365,0.169
37.38,0.181
37.395,0.069
37.41,0.177
37.425,0.228
37.44,0.165
37.455,0.111
37.47,0.058
37.485,0.061
37.5,0.143
37.515,0.125
37.53,0.041
37.545,0.196
37.56,0.276
37.575,0.191
37.59,0.118
37.605,0.092
37.62,-0.03
37.635,0.003
37.65,0.073
37.665,0.001
37.68,0.008
37.695,-0.029
37.71,-0.032
37.725,0.097
37.74,0.038
37.755,-0.017
37.77,0.014
37.785,-0.057
37.8,-0.11
37.815,-0.199
37.83,-0.143
37.845,-0.142
37.86,0.009
37.875,0.117
37.89,0.036
37.905,-0.092
37.92,-0.093
37.935,0.025
37.95,0.04
37.965,0.01
37.98,-0.141
37.995,-0.054
38.01,0.034
38.025,-0.084
38.04,-0.052
38.055,0.087
38.07,0.009
38.085,-0.007
38.1,0.09
38.115,0.015
38.13,0.021
38.145,-0.087
38.16,-0.156
38.175,-0.072
38.19,0.061
38.205,-0.018
38.22,-0.026
38.235,-0.094
38.25,-0.038
38.265,0.04
38.28,0.036
38.295,0.062
38.31,-0.068
38.325,-0.089
38.34,-0.101
38.355,-0.03
38.37,-0.055
38.385,-0.099
38.4,0.025
38.415,0.052
38.43,0.063
38.445,0.098
38.46,0.123
38.475,0.054
38.49,0.06
38.505,0.042
38.52,0.029
38.535,-0.136
38.55,-0.247
38.565,-0.215
38.58,-0.035
38.595,-0.058
38.61,-0.014
38.625,0.018
38.64,0.193
38.655,0.104
38.67,-0.134
38.685,-0.178
38.7,-0.143
38.715,0.063
38.73,0.039
38.745,-0.131
38.76,-0.042
38.775,0.087
38.79,0.076
38.805,0.056
38.82,0.035
38.835,0.04
38.85,0.029
38.865,0.065
38.88,0.069
38.895,-0.036
38.91,-0.083
38.925,-0.008
38.94,-0.056
38.955,-0.023
38.97,0.04
38.985,-0.013
39,-0.01
39.015,0.146
39.03,-0.012
39.045,0.029
39.06,-0.018
39.075,-0.093
39.09,0.06
39.105,0.059
39.12,0.08
39.135,0.241
39.15,0.108
39.165,-0.185
39.18,-0.246
39.195,-0.099
39.21,0.074
39.225,0.043
39.24,0.151
39.255,0.082
39.27,-0.027
39.285,-0.042
39.3,-0.002
39.315,0.012
39.33,0.076
39.345,-0.076
39.36,-0.05
39.375,-0.102
39.39,-0.017
39.405,0.136
39.42,0.131
39.435,-0.005
39.45,0.013
39.465,0.014
39.48,0.07
39.495,0.203
39.51,0.1
39.525,-0.065
39.54,-0.101
39.555,-0.097
39.57,0.007
39.585,0.085
39.6,-0.172
39.615,-0.167
39.63,-0.022
39.645,-0.004
39.66,0.166
39.675,0.268
39.69,0.209
39.705,-0.021
39.72,-0.039
39.735,-0.16
39.75,-0.161
39.765,0.082
39.78,0.103
39.795,0.155
39.81,0.229
39.825,0.258
39.84,0.156
39.855,0.047
39.87,-0.107
39.885,-0.135
39.9,0.087
39.915,0.115
39.93,0.099
39.945,-0.007
39.96,-0.033
39.975,0.026
39.99,0.1
40.005,0.163
40.02,0.15
40.035,0.071
40.05,0.03
40.065,-0.042
40.08,0.041
40.095,0.187
40.11,0.217
40.125,0.071
40.14,-0.018
40.155,0.01
40.17,-0.01
40.185,0.028
40.2,0.161
40.215,-0.09
40.23,-0.245
40.245,-0.023
40.26,0.077
40.275,-0.146
40.29,-0.065
40.305,0.099
40.32,0.008
40.335,-0.042
40.35,0.02
40.365,0.019
40.38,0.047
40.395,0.024
40.41,0.047
40.425,0.18
40.44,0.086
40.455,-0.002
40.47,-0.01
40.485,-0.127
40.5,-0.066
40.515,-0.01
40.53,-0.136
40.545,-0.136
40.56,-0.01
40.575,0.128
40.59,0.003
40.605,-0.009
40.62,-0.067
40.635,-0.011
40.65,0.015
40.665,-0.091
40.68,-0.053
40.695,0.092
40.71,0.029
40.725,0.14
40.74,0.157
40.755,0.084
40.77,-0.058
40.785,-0.095
40.8,-0.034
40.815,0.012
40.83,0.048
40.845,-0.1
40.86,0.028
40.875,0.021
40.89,0.019
40.905,-0.016
40.92,0.048
40.935,0.051
40.95,-0.109
40.965,-0.102
40.98,0.041
40.995,-0.053
41.01,-0.063
41.025,-0.053
41.04,-0.051
41.055,-0.099
41.07,-0.041
41.085,0.154
41.1,0.136
41.115,0.124
41.13,0.139
41.145,0.055
41.16,-0.035
41.175,-0.064
41.19,0.022
41.205,-0.032
41.22,0.007
41.235,-0.164
41.25,-0.211
41.265,0.03
41.28,0.058
41.295,0.088
41.31,-0.111
41.325,-0.186
41.34,-0.038
41.355,-0.015
41.37,0.065
41.385,0.082
41.4,0.081
41.415,0.124
41.43,0.118
41.445,0.2
41.46,-0.022
41.475,-0.036
41.49,-0.136
41.505,-0.043
41.52,0.181
41.535,0.128
41.55,0.087
41.565,-0.059
41.58,0.011
41.595,0.042
41.61,-0.037
41.625,0.102
41.64,0.167
41.655,0.15
41.67,0.199
41.685,0.337
41.7,0.333
41.715,0.221
41.73,0.258
41.745,0.256
41.76,0.276
41.775,0.362
41.79,0.39
41.805,0.316
41.82,0.275
41.835,0.322
41.85,0.314
41.865,0.397
41.88,0.502
41.895,0.382
41.91,0.456
41.925,0.506
41.94,0.519
41.955,0.473
41.97,0.566
41.985,0.655
42,0.544
42.015,0.444
42.03,0.397
42.045,0.421
42.06,0.501
42.075,0.561
42.09,0.566
42.105,0.511
42.12,0.436
42.135,0.464
42.15,0.535
42.165,0.449
42.18,0.547
42.195,0.585
42.21,0.512
42.225,0.471
42.24,0.529
42.255,0.522
42.27,0.591
42.285,0.7
42.3,0.767
42.315,0.651
42.33,0.768
42.345,0.766
42.36,0.603
42.375,0.523
42.39,0.577
42.405,0.649
42.42,0.788
42.435,0.763
42.45,0.879
42.465,0.983
42.48,1.067
42.495,1.032
42.51,1.171
42.525,1.378
42.54,1.211
42.555,1.196
42.57,1.374
42.585,1.29
42.6,1.29
42.615,1.417
42.63,1.626
42.645,1.607
42.66,1.582
42.675,1.809
42.69,1.908
42.705,1.756
42.72,1.855
42.735,2.032
42.75,2.011
42.765,1.945
42.78,2.047
42.795,2.113
42.81,2.216
42.825,2.342
42.84,2.21
42.855,2.112
42.87,2.216
42.885,2.241
42.9,2.087
42.915,2.142
42.93,2.215
42.945,2.23
42.96,2.212
42.975,2.36
42.99,2.402
43.005,2.149
43.02,2.121
43.035,2.079
43.05,1.975
43.065,1.944
43.08,1.791
43.095,1.699
43.11,1.708
43.125,1.454
43.14,1.412
43.155,1.477
43.17,1.578
43.185,1.325
43.2,1.133
43.215,0.885
43.23,0.981
43.245,1.002
43.26,0.91
43.275,0.826
43.29,0.891
43.305,0.849
43.32,0.808
43.335,0.698
43.35,0.788
43.365,0.723
43.38,0.647
43.395,0.547
43.41,0.649
43.425,0.581
43.44,0.497
43.455,0.41
43.47,0.406
43.485,0.338
43.5,0.257
43.515,0.202
43.53,0.426
43.545,0.435
43.56,0.382
43.575,0.273
43.59,0.241
43.605,0.373
43.62,0.314
43.635,0.351
43.65,0.514
43.665,0.496
43.68,0.357
43.695,0.341
43.71,0.323
43.725,0.146
43.74,0.263
43.755,0.451
43.77,0.306
43.785,0.259
43.8,0.275
43.815,0.182
43.83,0.231
43.845,0.218
43.86,0.113
43.875,0.035
43.89,-0.023
43.905,0.012
43.92,0.066
43.935,-0.004
43.95,0.102
43.965,0.118
43.98,-0.051
43.995,-0.067
44.01,-0.097
44.025,0.046
44.04,-0.003
44.055,-0.069
44.07,0.043
44.085,0.098
44.1,0.092
44.115,0.027
44.13,0.077
44.145,0.05
44.16,0.019
44.175,-0.026
44.19,-0.013
44.205,0.133
44.22,0.158
44.235,-0.018
44.25,-0.043
44.265,-0.019
44.28,-0.131
44.295,-0.103
44.31,-0.132
44.325,0.018
44.34,0.105
44.355,-0.036
44.37,-0.079
44.385,0.047
44.4,0.189
44.415,0.08
44.43,0.024
44.445,-0.011
44.46,-0.131
44.475,0.032
44.49,0.104
44.505,0.078
44.52,0.136
44.535,0.012
44.55,-0.027
44.565,0.04
44.58,-0.019
44.595,-0.011
44.61,-0.155
44.625,-0.243
44.64,-0.081
44.655,-0.081
44.67,-0.026
44.685,-0.121
44.7,-0.061
44.715,-0.007
44.73,-0.014
44.745,-0.05
44.76,-0.022
44.775,-0.061
44.79,-0.035
44.805,-0.211
44.82,-0.216
44.835,0.096
44.85,0.092
44.865,-0.007
44.88,-0.073
44.895,-0.035
44.91,-0.115
44.925,-0.063
44.94,-0.039
44.955,-0.198
44.97,-0.116
44.985,0.083
45,-0.047
45.015,-0.174
45.03,-0.138
45.045,-0.145
45.06,-0.071
45.075,-0.153
45.09,-0.052
45.105,0.06
45.12,0.019
45.135,-0.104
45.15,-0.144
45.165,-0.118
45.18,-0.161
45.195,-0.179
45.21,-0.133
45.225,-0.093
45.24,0.041
45.255,-0.074
45.27,-0.081
45.285,-0.163
45.3,-0.192
45.315,-0.179
45.33,-0.168
45.345,-0.156
45.36,-0.085
45.375,-0.036
45.39,-0.104
45.405,-0.022
45.42,-0.021
45.435,-0.163
45.45,-0.233
45.465,-0.207
45.48,-0.159
45.495,-0.003
45.51,-0.049
45.525,-0.127
45.54,-0.018
45.555,0.013
45.57,-0.138
45.585,-0.242
45.6,-0.123
45.615,-0.037
45.63,-0.034
45.645,0.034
45.66,0.013
45.675,-0.083
45.69,-0.117
45.705,-0.105
45.72,-0.175
45.735,-0.198
45.75,-0.154
45.765,-0.076
45.78,-0.064
45.795,-0.206
45.81,-0.201
45.825,-0.096
45.84,0.022
45.855,0.078
45.87,-0.065
45.885,-0.101
45.9,-0.159
45.915,-0.097
45.93,-0.104
45.945,-0.205
45.96,-0.214
45.975,-0.238
45.99,-0.202
46.005,-0.106
46.02,-0.057
46.035,-0.054
46.05,0.019
46.065,-0.109
46.08,-0.077
46.095,-0.069
46.11,-0.218
46.125,-0.117
46.14,-0.018
46.155,0.007
46.17,-0.107
46.185,-0.189
46.2,-0.163
46.215,-0.021
46.23,0.021
46.245,-0.073
46.26,-0.033
46.275,-0.139
46.29,-0.173
46.305,-0.115
46.32,-0.19
46.335,-0.173
46.35,-0.158
46.365,-0.174
46.38,-0.204
46.395,-0.179
46.41,-0.141
46.425,-0.116
46.44,-0.076
46.455,-0.039
46.47,-0.022
46.485,0.034
46.5,0.039
46.515,-0.036
46.53,-0.133
46.545,-0.2
46.56,-0.106
46.575,0.103
46.59,0.006
46.605,0.052
46.62,0.155
46.635,0.109
46.65,0.103
46.665,-0.003
46.68,-0.13
46.695,-0.182
46.71,-0.122
46.725,-0.128
46.74,-0.209
46.755,-0.201
46.77,-0.103
46.785,-0.13
46.8,-0.091
46.815,-0.089
46.83,-0.087
46.845,-0.085
46.86,-0.179
46.875,-0.163
46.89,0.035
46.905,-0.094
46.92,-0.156
46.935,-0.081
46.95,-0.089
46.965,-0.171
46.98,-0.157
46.995,-0.183
47.01,-0.125
47.025,-0.063
47.04,0.017
47.055,-0.005
47.07,0.013
47.085,-0.006
47.1,-0.118
47.115,-0.173
47.13,-0.025
47.145,-0.053
47.16,-0.058
47.175,-0.006
47.19,-0.085
47.205,-0.222
47.22,-0.204
47.235,-0.038
47.25,0.062
47.265,0.043
47.28,-0.01
47.295,-0.024
47.31,0.002
47.325,-0.139
47.34,-0.206
47.355,-0.084
47.37,-0.105
47.385,-0.12
47.4,-0.186
47.415,-0.117
47.43,-0.241
47.445,-0.116
47.46,-0.053
47.475,-0.04
47.49,-0.138
47.505,-0.149
47.52,-0.009
47.535,-0.002
47.55,-0.162
47.565,-0.195
47.58,-0.142
47.595,-0.001
47.61,0.119
47.625,0.174
47.64,0.109
47.655,-0.019
47.67,-0.043
47.685,-0.09
47.7,0.053
47.715,0.185
47.73,0.277
47.745,0.122
47.76,-0.051
47.775,-0.135
47.79,-0.068
47.805,0.035
47.82,-0.008
47.835,-0.134
47.85,-0.107
47.865,-0.161
47.88,-0.173
47.895,0.008
47.91,0.021
47.925,-0.085
47.94,-0.076
47.955,-0.099
47.97,-0.095
47.985,0.084
48,-0.058
48.015,-0.145
48.03,-0.14
48.045,-0.148
48.06,-0.087
48.075,0.073
48.09,0.002
48.105,-0.13
48.12,0.055
48.135,0.111
48.15,-0.054
48.165,0.028
48.18,0.06
48.195,0.099
48.21,0.054
48.225,0.017
48.24,0.008
48.255,-0.076
48.27,-0.07
48.285,-0.015
48.3,0.073
48.315,-0.035
48.33,-0.029
48.345,0.001
48.36,-0.008
48.375,-0.12
48.39,-0.137
48.405,0.007
48.42,-0.04
48.435,-0.031
48.45,-0.059
48.465,-0.011
48.48,-0.02
48.495,-0.063
48.51,-0.066
48.525,-0.14
48.54,-0.1
48.555,-0.011
48.57,0.001
48.585,-0.096
48.6,-0.13
48.615,-0.187
48.63,-0.088
48.645,-0.099
48.66,-0.056
48.675,-0.12
48.69,-0.092
48.705,-0.044
48.72,0.015
48.735,-0.116
48.75,0.029
48.765,-0.017
48.78,-0.164
48.795,-0.137
48.81,-0.002
48.825,-0.05
48.84,-0.107
48.855,-0.135
48.87,-0.052
48.885,0.018
48.9,-0.043
48.915,0.036
48.93,-0.053
48.945,-0.146
48.96,-0.091
48.975,-0.014
48.99,-0.082
49.005,0.004
49.02,0.021
49.035,-0.014
49.05,-0.065
49.065,-0.192
49.08,-0.094
49.095,-0.101
49.11,-0.14
49.125,-0.083
49.14,-0.079
49.155,-0.034
49.17,0.026
49.185,-0.065
49.2,-0.173
49.215,-0.24
49.23,-0.136
49.245,-0.018
49.26,-0.155
49.275,-0.073
49.29,-0.124
49.305,-0.152
49.32,-0.131
49.335,-0.092
49.35,-0.025
49.365,-0.021
49.38,0.139
49.395,0.071
49.41,-0.135
49.425,-0.167
49.44,-0.182
49.455,-0.083
49.47,-0.005
49.485,0.137
49.5,0.136
49.515,0.044
49.53,-0.073
49.545,-0.051
49.56,0.026
49.575,-0.181
49.59,-0.086
49.605,-0.102
49.62,-0.051
49.635,0.088
49.65,-0.031
49.665,-0.173
49.68,-0.197
49.695,-0.086
49.71,-0.051
49.725,0.045
49.74,0.036
49.755,-0.137
49.77,-0.119
49.785,-0.112
49.8,-0.044
49.815,-0.037
49.83,-0.048
49.845,-0.188
49.86,-0.164
49.875,-0.085
49.89,-0.067
49.905,-0.093
49.92,-0.104
49.935,-0.178
49.95,-0.136
49.965,-0.144
49.98,-0.098
49.995,-0.03
50.01,-0.011
50.025,-0.087
50.04,0.021
50.055,0.047
50.07,0.007
50.085,-0.131
50.1,-0.088
50.115,-0.082
50.13,-0.08
50.145,-0.05
50.16,-0.062
50.175,-0.166
50.19,-0.161
50.205,-0.062
50.22,0.012
50.235,-0.012
50.25,-0.063
50.265,-0.085
50.28,-0.104
50.295,-0.091
50.31,-0.135
50.325,-0.21
50.34,-0.189
50.355,-0.079
50.37,0.003
50.385,0.02
50.4,-0.015
50.415,-0.115
50.43,-0.13
50.445,-0.027
50.46,-0.115
50.475,-0.085
50.49,-0.086
50.505,-0.108
50.52,0.1
50.535,0.141
50.55,0.119
50.565,-0.104
50.58,-0.06
50.595,-0.109
50.61,-0.093
50.625,-0.032
50.64,0.004
50.655,-0.069
50.67,-0.072
50.685,0.047
50.7,-0.006
50.715,-0.047
50.73,-0.039
50.745,-0.005
50.76,-0.12
50.775,-0.066
50.79,0.021
50.805,-0.055
50.82,0.012
50.835,-0.138
50.85,-0.045
50.865,-0.029
50.88,-0.239
50.895,-0.162
50.91,-0.045
50.925,0.128
50.94,0.015
50.955,-0.064
50.97,-0.115
50.985,-0.212
51,-0.058
51.015,0.031
51.03,0.028
51.045,0.04
51.06,-0.023
51.075,-0.056
51.09,-0.098
51.105,-0.04
51.12,0.008
51.135,-0.13
51.15,-0.179
51.165,-0.149
51.18,-0.201
51.195,-0.219
51.21,-0.172
51.225,-0.058
51.24,0.091
51.255,0.096
51.27,0.045
51.285,-0.227
51.3,-0.219
51.315,-0.055
51.33,-0.052
51.345,-0.051
51.36,-0.125
51.375,-0.145
51.39,-0.06
51.405,-0.064
51.42,-0.041
51.435,-0.074
51.45,-0.098
51.465,0
51.48,-0.098
51.495,0.051
51.51,0.083
51.525,-0.054
51.54,-0.084
51.555,-0.034
51.57,-0.035
51.585,0.015
51.6,-0.024
51.615,-0.115
51.63,-0.143
51.645,-0.135
51.66,-0.097
51.675,-0.021
51.69,-0.056
51.705,-0.079
51.72,-0.062
51.735,-0.089
51.75,0.024
51.765,-0.069
51.78,-0.214
51.795,-0.215
51.81,-0.145
51.825,-0.029
51.84,-0.063
51.855,-0.039
51.87,-0.021
51.885,-0.103
51.9,-0.113
51.915,-0.015
51.93,0.038
51.945,-0.054
51.96,-0.02
51.975,-0.11
51.99,-0.044
52.005,0.019
52.02,-0.151
52.035,-0.22
52.05,-0.155
52.065,-0.14
52.08,-0.091
52.095,-0.011
52.11,-0.087
52.125,-0.101
52.14,-0.036
52.155,-0.177
52.17,-0.239
52.185,-0.217
52.2,-0.21
52.215,-0.088
52.23,0.022
52.245,-0.019
52.26,-0.046
52.275,-0.011
52.29,-0.024
52.305,-0.078
52.32,-0.051
52.335,-0.006
52.35,0.032
52.365,-0.039
52.38,-0.113
52.395,-0.084
52.41,-0.124
52.425,-0.112
52.44,-0.011
52.455,0.127
52.47,0.145
52.485,-0.045
52.5,-0.109
52.515,-0.053
52.53,0.004
52.545,-0.037
52.56,-0.046
52.575,-0.002
52.59,0.016
52.605,-0.02
52.62,0.07
52.635,0.019
52.65,0.065
52.665,-0.041
52.68,-0.106
52.695,-0.079
52.71,-0.155
52.725,-0.078
52.74,-0.044
52.755,-0.11
52.77,-0.082
52.785,-0.2
52.8,-0.235
52.815,-0.032
52.83,0.054
52.845,-0.002
52.86,0.038
52.875,-0.021
52.89,-0.009
52.905,0.048
52.92,0.01
52.935,-0.025
52.95,-0.075
52.965,-0.074
52.98,-0.049
52.995,0.021
53.01,0.128
53.025,0.024
53.04,-0.231
53.055,-0.09
53.07,0.043
53.085,-0.012
53.1,-0.035
53.115,-0.079
53.13,0.012
53.145,0.145
53.16,0.052
53.175,0.075
53.19,-0.015
53.205,-0.104
53.22,-0.004
53.235,0.011
53.25,-0.014
53.265,0.146
53.28,0.087
53.295,0.001
53.31,0.084
53.325,0.092
53.34,0.011
53.355,0.092
53.37,-0.006
53.385,-0.044
53.4,0.028
53.415,0.211
53.43,0.16
53.445,0.079
53.46,0.044
53.475,0.099
53.49,0.032
53.505,0.168
53.52,0.027
53.535,-0.011
53.55,0.17
53.565,-0.011
53.58,-0.148
53.595,-0.069
53.61,0.053
53.625,0.14
53.64,-0.006
53.655,-0.127
53.67,-0.033
53.685,0.104
53.7,0.005
53.715,0.072
53.73,0.003
53.745,-0.071
53.76,0.053
53.775,0.063
53.79,-0.135
53.805,0.025
53.82,0.049
53.835,0.003
53.85,-0.075
53.865,0.079
53.88,0.075
53.895,-0.11
53.91,0.024
53.925,-0.029
53.94,-0.234
53.955,-0.238
53.97,-0.097
53.985,-0.119
54,-0.117
54.015,-0.012
54.03,-0.002
54.045,-0.049
54.06,0.01
54.075,-0.056
54.09,-0.078
54.105,-0.029
54.12,0.012
54.135,-0.061
54.15,-0.035
54.165,-0.066
54.18,-0.025
54.195,-0.127
54.21,-0.062
54.225,0.286
54.24,0.208
54.255,-0.026
54.27,-0.048
54.285,-0.135
54.3,-0.172
54.315,0.021
54.33,-0.007
54.345,-0.093
54.36,-0.024
54.375,-0.013
54.39,0.07
54.405,-0.02
54.42,-0.144
54.435,-0.12
54.45,-0.054
54.465,-0.104
54.48,-0.086
54.495,-0.075
54.51,-0.094
54.525,-0.056
54.54,-0.032
54.555,0.149
54.57,0.139
54.585,0.018
54.6,-0.008
54.615,-0.115
54.63,-0.115
54.645,-0.016
54.66,-0.025
54.675,0.046
54.69,0.056
54.705,-0.009
54.72,0.025
54.735,-0.058
54.75,-0.238
54.765,-0.128
54.78,-0.098
54.795,-0.109
54.81,-0.165
54.825,-0.083
54.84,-0.046
54.855,-0.019
54.87,-0.141
54.885,-0.147
54.9,0.044
54.915,-0.125
54.93,-0.18
54.945,-0.011
54.96,0.014
54.975,-0.134
54.99,-0.175
55.005,0.055
55.02,-0.046
55.035,-0.227
55.05,-0.197
55.065,-0.125
55.08,-0.213
55.095,-0.157
55.11,-0.131
55.125,-0.051
55.14,-0.04
55.155,-0.039
55.17,-0.072
55.185,-0.043
55.2,-0.034
55.215,-0.027
55.23,0.006
55.245,-0.064
55.26,-0.12
55.275,-0.098
55.29,-0.039
55.305,0.016
55.32,0.077
55.335,0.054
55.35,-0.031
55.365,-0.044
55.38,-0.109
55.395,-0.117
55.41,-0.06
55.425,-0.053
55.44,-0.062
55.455,-0.091
55.47,-0.211
55.485,0.035
55.5,0
55.515,-0.137
55.53,-0.121
55.545,0.025
55.56,0.07
55.575,0.051
55.59,0.097
55.605,0.011
55.62,-0.067
55.635,-0.078
55.65,-0.135
55.665,-0.136
55.68,-0.096
55.695,-0.048
55.71,-0.057
55.725,-0.09
55.74,-0.003
55.755,0.096
55.77,0.108
55.785,0.082
55.8,-0.133
55.815,-0.2
55.83,-0.11
55.845,-0.012
55.86,0.083
55.875,0.117
55.89,0.102
55.905,-0.019
55.92,-0.153
55.935,-0.022
55.95,0.133
55.965,0.117
55.98,0.12
55.995,-0.013
56.01,0.098
56.025,0.114
56.04,0.061
56.055,0.023
56.07,0.072
56.085,0.141
56.1,0.008
56.115,0.033
56.13,0.057
56.145,0.056
56.16,0.099
56.175,0.09
56.19,0.142
56.205,0.136
56.22,0.175
56.235,0.127
56.25,0.059
56.265,0.121
56.28,0.149
56.295,0.32
56.31,0.341
56.325,0.159
56.34,0.193
56.355,0.364
56.37,0.288
56.385,0.11
56.4,0.166
56.415,0.197
56.43,0.244
56.445,0.201
56.46,0.234
56.475,0.297
56.49,0.297
56.505,0.341
56.52,0.332
56.535,0.351
56.55,0.36
56.565,0.257
56.58,0.351
56.595,0.336
56.61,0.123
56.625,0.164
56.64,0.366
56.655,0.365
56.67,0.307
56.685,0.19
56.7,0.239
56.715,0.31
56.73,0.385
56.745,0.578
56.76,0.403
56.775,0.224
56.79,0.245
56.805,0.303
56.82,0.332
56.835,0.375
56.85,0.39
56.865,0.262
56.88,0.293
56.895,0.331
56.91,0.326
56.925,0.267
56.94,0.324
56.955,0.505
56.97,0.486
56.985,0.417
57,0.335
57.015,0.368
57.03,0.255
57.045,0.261
57.06,0.273
57.075,0.332
57.09,0.393
57.105,0.441
57.12,0.527
57.135,0.405
57.15,0.328
57.165,0.26
57.18,0.28
57.195,0.396
57.21,0.332
57.225,0.169
57.24,0.337
57.255,0.454
57.27,0.527
57.285,0.522
57.3,0.45
57.315,0.449
57.33,0.347
57.345,0.296
57.36,0.365
57.375,0.387
57.39,0.368
57.405,0.24
57.42,0.239
57.435,0.372
57.45,0.3
57.465,0.373
57.48,0.358
57.495,0.394
57.51,0.424
57.525,0.265
57.54,0.251
57.555,0.253
57.57,0.205
57.585,0.269
57.6,0.406
57.615,0.273
57.63,0.092
57.645,0.098
57.66,0.147
57.675,0.18
57.69,0.188
57.705,0.261
57.72,0.478
57.735,0.383
57.75,0.258
57.765,0.273
57.78,0.148
57.795,0.074
57.81,0.105
57.825,0.1
57.84,0.093
57.855,0.202
57.87,0.255
57.885,0.272
57.9,0.17
57.915,0.173
57.93,0.201
57.945,0.1
57.96,0.162
57.975,0.174
57.99,0.073
58.005,0.116
58.02,0.153
58.035,0.09
58.05,0.258
58.065,0.265
58.08,-0.002
58.095,0.014
58.11,0.034
58.125,-0.027
58.14,-0.01
58.155,0.178
58.17,0.202
58.185,0.022
58.2,-0.046
58.215,0.094
58.23,-0.072
58.245,-0.002
58.26,0.037
58.275,-0.065
58.29,-0.066
58.305,-0.138
58.32,-0.017
58.335,0.15
58.35,0.135
58.365,0.04
58.38,0.004
58.395,0.014
58.41,-0.009
58.425,-0.087
58.44,-0.08
58.455,0.098
58.47,0.124
58.485,-0.017
58.5,-0.131
58.515,-0.043
58.53,0.035
58.545,0.015
58.56,-0.151
58.575,-0.115
58.59,-0.025
58.605,-0.172
58.62,-0.236
58.635,-0.136
58.65,0.049
58.665,0.006
58.68,0.024
58.695,-0.095
58.71,0.016
58.725,0.013
58.74,0.125
58.755,0.138
58.77,0.091
58.785,0.051
58.8,0.002
58.815,0.141
58.83,0.16
58.845,-0.022
58.86,-0.098
58.875,-0.069
58.89,-0.025
58.905,-0.034
58.92,-0.029
58.935,-0.043
58.95,-0.123
58.965,-0.135
58.98,-0.067
58.995,-0.106
59.01,-0.152
59.025,0.03
59.04,0.052
59.055,-0.119
59.07,-0.041
59.085,-0.055
59.1,0.019
59.115,0.077
59.13,-0.01
59.145,-0.012
59.16,0.068
59.175,-0.003
59.19,-0.023
59.205,-0.112
59.22,-0.147
59.235,-0.089
59.25,-0.003
59.265,0.044
59.28,0.053
59.295,0.05
59.31,-0.037
59.325,-0.118
59.34,-0.092
59.355,-0.129
59.37,-0.063
59.385,-0.068
59.4,-0.141
59.415,-0.168
59.43,-0.064
59.445,-0.075
59.46,-0.087
59.475,-0.033
59.49,-0.132
59.505,-0.214
59.52,-0.165
59.535,-0.103
59.55,-0.035
59.565,0.012
59.58,-0.028
59.595,-0.102
59.61,-0.048
59.625,-0.037
59.64,0.015
59.655,0.16
59.67,0.113
59.685,-0.01
59.7,-0.085
59.715,-0.058
59.73,0.094
59.745,0.052
59.76,0.023
59.775,0.011
59.79,-0.049
59.805,-0.064
59.82,-0.017
59.835,-0.005
59.85,-0.081
59.865,-0.046
59.88,0.014
59.895,0.031
59.91,0.094
59.925,0.095
59.94,-0.054
59.955,-0.029
59.97,0.008
59.985,0.013
60,0.079
60.015,0.089
60.03,0.024
60.045,-0.128
60.06,-0.125
60.075,-0.234
60.09,-0.008
60.105,0.154
60.12,0.093
60.135,0.011
60.15,0.003
60.165,0.086
60.18,-0.066
60.195,-0.119
60.21,0.041
60.225,0.115
60.24,-0.156
60.255,-0.204
60.27,0.003
60.285,-0.029
60.3,0.128
60.315,0.179
60.33,-0.056
60.345,-0.03
60.36,0.099
60.375,-0.05
60.39,-0.058
60.405,-0.01
60.42,0.067
60.435,0.087
60.45,-0.01
60.465,0.078
60.48,0.025
60.495,0.042
60.51,0.068
60.525,0.161
60.54,0.132
60.555,0.007
60.57,-0.09
60.585,0.029
60.6,0.032
60.615,-0.007
60.63,0.118
60.645,0.171
60.66,0.061
60.675,0.015
60.69,0.062
60.705,0.141
60.72,0.28
60.735,0.258
60.75,0.186
60.765,0.103
60.78,0.12
60.795,0.234
60.81,0.212
60.825,0.22
60.84,0.199
60.855,0.06
60.87,0.145
60.885,0.275
60.9,0.341
60.915,0.329
60.93,0.289
60.945,0.126
60.96,0.134
60.975,0.148
60.99,0.197
61.005,0.289
61.02,0.355
61.035,0.339
61.05,0.327
61.065,0.377
61.08,0.34
61.095,0.334
61.11,0.237
61.125,0.275
61.14,0.397
61.155,0.372
61.17,0.154
61.185,0.165
61.2,0.321
61.215,0.204
61.23,0.131
61.245,0.212
61.26,0.195
61.275,0.355
61.29,0.288
61.305,0.251
61.32,0.277
61.335,0.254
61.35,0.336
61.365,0.236
61.38,0.284
61.395,0.426
61.41,0.394
61.425,0.272
61.44,0.168
61.455,0.128
61.47,0.095
61.485,0.246
61.5,0.318
61.515,0.268
61.53,0.255
61.545,0.431
61.56,0.528
61.575,0.427
61.59,0.225
61.605,0.321
61.62,0.311
61.635,0.228
61.65,0.179
61.665,0.295
61.68,0.381
61.695,0.409
61.71,0.495
61.725,0.444
61.74,0.364
61.755,0.417
61.77,0.501
61.785,0.551
61.8,0.654
61.815,0.772
61.83,0.799
61.845,0.766
61.86,0.904
61.875,1.031
61.89,1.036
61.905,1.064
61.92,1.119
61.935,1.06
61.95,1.137
61.965,1.294
61.98,1.378
61.995,1.511
62.01,1.557
62.025,1.61
62.04,1.634
62.055,1.913
62.07,1.948
62.085,1.957
62.1,2.004
62.115,2.026
62.13,2.223
62.145,2.217
62.16,2.412
62.175,2.5
62.19,2.345
62.205,2.395
62.22,2.469
62.235,2.562
62.25,2.575
62.265,2.558
62.28,2.572
62.295,2.698
62.31,2.797
62.325,2.755
62.34,2.584
62.355,2.448
62.37,2.49
62.385,2.577
62.4,2.545
62.415,2.349
62.43,2.324
62.445,2.381
62.46,2.352
62.475,2.278
62.49,2.246
62.505,2.339
62.52,2.281
62.535,2.299
62.55,2.053
62.565,1.915
62.58,1.88
62.595,1.806
62.61,1.823
62.625,1.793
62.64,1.714
62.655,1.63
62.67,1.646
62.685,1.592
62.7,1.552
62.715,1.4
62.73,1.531
62.745,1.563
62.76,1.335
62.775,1.281
62.79,1.165
62.805,1.047
62.82,1.145
62.835,1.161
62.85,1.107
62.865,1.146
62.88,1.224
62.895,1.189
62.91,0.908
62.925,0.884
62.94,0.988
62.955,0.99
62.97,0.945
62.985,0.9
63,0.871
63.015,1.01
63.03,1.001
63.045,0.851
63.06,0.75
63.075,0.835
63.09,0.732
63.105,0.786
63.12,0.794
63.135,0.664
63.15,0.681
63.165,0.759
63.18,0.798
63.195,0.611
63.21,0.61
63.225,0.639
63.24,0.794
63.255,0.673
63.27,0.592
63.285,0.512
63.3,0.556
63.315,0.505
63.33,0.435
63.345,0.49
63.36,0.481
63.375,0.577
63.39,0.474
63.405,0.399
63.42,0.435
63.435,0.44
63.45,0.351
63.465,0.468
63.48,0.47
63.495,0.426
63.51,0.387
63.525,0.471
63.54,0.445
63.555,0.294
63.57,0.23
63.585,0.29
63.6,0.252
63.615,0.288
63.63,0.321
63.645,0.286
63.66,0.307
63.675,0.178
63.69,0.171
63.705,0.124
63.72,0.051
63.735,0.206
63.75,0.28
63.765,0.2
63.78,0.247
63.795,0.246
63.81,0.193
63.825,0.123
63.84,0.158
63.855,0.087
63.87,0.08
63.885,0.235
63.9,0.368
63.915,0.167
63.93,0.211
63.945,0.204
63.96,0.19
63.975,0.115
63.99,0.047
64.005,0.14
64.02,0.168
64.035,0.064
64.05,-0.012
64.065,0.031
64.08,0.103
64.095,0.295
64.11,0.36
64.125,0.101
64.14,0.052
64.155,0.147
64.17,0.041
64.185,0.037
64.2,0.081
64.215,0.137
64.23,0.112
64.245,0.156
64.26,0.124
64.275,0.103
64.29,0.148
64.305,-0.04
64.32,-0.121
64.335,-0.231
64.35,-0.072
64.365,0.098
64.38,0.136
64.395,0.221
64.41,0.171
64.425,0.065
64.44,0.147
64.455,0.103
64.47,0.107
64.485,0.132
64.5,0.072
64.515,0.1
64.53,0.151
64.545,0.002
64.56,0.023
64.575,0.108
64.59,0.061
64.605,0.051
64.62,-0.012
64.635,0.025
64.65,0.117
64.665,0.132
64.68,0.212
64.695,0.254
64.71,0.062
64.725,-0.101
64.74,-0.096
64.755,-0.08
64.77,0.016
64.785,0.001
64.8,-0.064
64.815,-0.041
64.83,0.049
64.845,0.094
64.86,0
64.875,-0.081
64.89,-0.058
64.905,-0.125
64.92,-0.089
64.935,-0.071
64.95,0.082
64.965,0.132
64.98,-0.089
64.995,-0.071
65.01,0.001
65.025,0.075
65.04,-0.008
65.055,-0.021
65.07,-0.106
65.085,-0.066
65.1,-0.046
65.115,-0.091
65.13,0.015
65.145,-0.068
65.16,-0.18
65.175,-0.117
65.19,-0.037
65.205,-0.045
65.22,-0.049
65.235,0.116
65.25,-0.017
65.265,-0.114
65.28,-0.074
65.295,-0.005
65.31,0.029
65.325,-0.015
65.34,-0.056
65.355,0.008
65.37,0.037
65.385,-0.048
65.4,-0.092
65.415,-0.012
65.43,-0.108
65.445,-0.098
65.46,-0.125
65.475,-0.107
65.49,-0.052
65.505,-0.152
65.52,-0.124
65.535,-0.224
65.55,-0.146
65.565,-0.079
65.58,-0.047
65.595,-0.008
65.61,-0.023
65.625,-0.001
65.64,0.104
65.655,0.006
65.67,-0.071
65.685,-0.029
65.7,-0.039
65.715,-0.126
65.73,-0.203
65.745,-0.139
65.76,0.006
65.775,-0.011
65.79,-0.016
65.805,0.113
65.82,0.094
65.835,-0.071
65.85,-0.072
65.865,0.066
65.88,0.104
65.895,0.064
65.91,0.001
65.925,-0.031
65.94,0.085
65.955,0.076
65.97,0.01
65.985,-0.011
66,-0.052
66.015,-0.012
66.03,-0.132
66.045,-0.18
66.06,-0.085
66.075,-0.072
66.09,-0.087
66.105,0.077
66.12,0.062
66.135,-0.076
66.15,-0.052
66.165,0.068
66.18,0.133
66.195,0.072
66.21,-0.057
66.225,0.031
66.24,-0.038
66.255,-0.086
66.27,0.043
66.285,-0.071
66.3,-0.09
66.315,-0.01
66.33,-0.031
66.345,-0.057
66.36,-0.034
66.375,-0.02
66.39,0.001
66.405,0.024
66.42,-0.077
66.435,-0.165
66.45,-0.141
66.465,0.051
66.48,0.144
66.495,0.112
66.51,0.048
66.525,-0.121
66.54,-0.223
66.555,-0.176
66.57,0.044
66.585,-0.031
66.6,-0.02
66.615,-0.056
66.63,0.029
66.645,-0.089
66.66,-0.114
66.675,-0.026
66.69,0.02
66.705,-0.016
66.72,-0.052
66.735,-0.16
66.75,-0.23
66.765,-0.089
66.78,0.092
66.795,0.02
66.81,0.162
66.825,0.106
66.84,0.019
66.855,-0.059
66.87,-0.005
66.885,0.081
66.9,0.078
66.915,0.023
66.93,-0.01
66.945,-0.051
66.96,-0.152
66.975,-0.148
66.99,-0.049
67.005,-0.041
67.02,-0.114
67.035,-0.097
67.05,-0.129
67.065,-0.14
67.08,-0.148
67.095,-0.098
67.11,-0.126
67.125,-0.039
67.14,0.011
67.155,0.07
67.17,-0.031
67.185,-0.001
67.2,0.037
67.215,-0.114
67.23,-0.056
67.245,-0.005
67.26,-0.032
67.275,0.017
67.29,0.073
67.305,0.032
67.32,-0.11
67.335,-0.056
67.35,0.073
67.365,-0.018
67.38,-0.083
67.395,-0.084
67.41,-0.023
67.425,-0.08
67.44,-0.042
67.455,-0.043
67.47,-0.089
67.485,-0.105
67.5,-0.088
67.515,0.047
67.53,0.044
67.545,-0.007
67.56,-0.134
67.575,-0.203
67.59,-0.121
67.605,-0.149
67.62,0.035
67.635,0.083
67.65,0.023
67.665,-0.073
67.68,-0.029
67.695,0.016
67.71,0.021
67.725,-0.058
67.74,-0.072
67.755,-0.115
67.77,-0.06
67.785,0.026
67.8,-0.077
67.815,0.011
67.83,-0.003
67.845,0.002
67.86,0.017
67.875,-0.139
67.89,-0.106
67.905,0.044
67.92,-0.061
67.935,-0.006
67.95,0.011
67.965,-0.065
67.98,-0.059
67.995,0.005
68.01,-0.068
68.025,-0.103
68.04,-0.058
68.055,-0.093
68.07,-0.089
68.085,0.165
68.1,0.15
68.115,0.019
68.13,0.084
68.145,-0.028
68.16,-0.015
68.175,-0.028
68.19,-0.16
68.205,-0.154
68.22,-0.022
68.235,0.008
68.25,-0.011
68.265,-0.132
68.28,-0.043
68.295,0.013
68.31,0.083
68.325,0.078
68.34,-0.016
68.355,0.001
68.37,0.051
68.385,0.168
68.4,0.111
68.415,-0.028
68.43,0.093
68.445,0.203
68.46,0.067
68.475,-0.072
68.49,-0.229
68.505,-0.063
68.52,-0.005
68.535,0.014
68.55,0.009
68.565,0.013
68.58,-0.021
68.595,-0.136
68.61,-0.081
68.625,-0.01
68.64,0.076
68.655,-0.017
68.67,0
68.685,0.114
68.7,0.119
68.715,0.097
68.73,0.054
68.745,-0.05
68.76,-0.014
68.775,0.01
68.79,0.053
68.805,0.013
68.82,-0.007
68.835,0.02
68.85,-0.086
68.865,-0.028
68.88,0.173
68.895,0.166
68.91,0.065
68.925,0.093
68.94,0.065
68.955,0.069
68.97,0.011
68.985,0.027
69,0.033
69.015,0.062
69.03,0.117
69.045,0.001
69.06,0
69.075,0.035
69.09,-0.011
69.105,0.153
69.12,0.061
69.135,0.055
69.15,0.199
69.165,0.058
69.18,0.024
69.195,0.031
69.21,0.025
69.225,0.12
69.24,0.114
69.255,0.14
69.27,0.086
69.285,-0.057
69.3,-0.057
69.315,0.074
69.33,0.126
69.345,0.13
69.36,0.137
69.375,0.021
69.39,-0.044
69.405,0.083
69.42,0.075
69.435,0.075
69.45,0.06
69.465,0.02
69.48,0.043
69.495,0.059
69.51,-0.06
69.525,0.12
69.54,0.119
69.555,0.048
69.57,-0.047
69.585,0.05
69.6,0.096
69.615,0.103
69.63,0.157
69.645,0.151
69.66,0.08
69.675,0.021
69.69,-0.038
69.705,-0.057
69.72,-0.054
69.735,-0.029
69.75,0.046
69.765,0.028
69.78,0.075
69.795,0.13
69.81,0.092
69.825,0.039
69.84,0.196
69.855,0.273
69.87,0.193
69.885,0
69.9,0.016
69.915,0.18
69.93,0.17
69.945,0.155
69.96,0.094
69.975,0.134
69.99,-0.029
70.005,-0.08
70.02,0.059
70.035,0.229
70.05,0.187
70.065,0.075
70.08,0.043
70.095,0.032
70.11,0.161
70.125,0.146
70.14,0.039
70.155,0.195
70.17,0.282
70.185,0.224
70.2,0.198
70.215,0.193
70.23,0.117
70.245,0.036
70.26,0.063
70.275,0.096
70.29,0.131
70.305,0.229
70.32,0.21
70.335,0.098
70.35,0.127
70.365,0.057
70.38,0.153
70.395,0.239
70.41,0.212
70.425,0.209
70.44,0.271
70.455,0.192
70.47,0.149
70.485,0.179
70.5,0.168
70.515,0.102
70.53,0.086
70.545,0.219
70.56,0.258
70.575,0.174
70.59,0.141
70.605,0.241
70.62,0.273
70.635,0.21
70.65,0.141
70.665,0.086
70.68,0.028
70.695,0.22
70.71,0.162
70.725,-0.083
70.74,0.004
70.755,0.084
70.77,0.157
70.785,0.11
70.8,0.144
70.815,0.191
70.83,0.232
70.845,0.429
70.86,0.384
70.875,0.248
70.89,0.186
70.905,0.224
70.92,0.207
70.935,0.196
70.95,0.232
70.965,0.219
70.98,0.135
70.995,0.207
71.01,0.136
71.025,0.119
71.04,0.21
71.055,0.214
71.07,0.157
71.085,0.125
71.1,0.15
71.115,0.181
71.13,0.276
71.145,0.198
71.16,0.098
71.175,0.08
71.19,0.248
71.205,0.338
71.22,0.378
71.235,0.326
71.25,0.322
71.265,0.236
71.28,0.061
71.295,0.112
71.31,0.254
71.325,0.163
71.34,0.15
71.355,0.076
71.37,0.159
71.385,0.303
71.4,0.261
71.415,0.278
71.43,0.299
71.445,0.14
71.46,0.202
71.475,0.166
71.49,0.177
71.505,0.351
71.52,0.31
71.535,0.307
71.55,0.358
71.565,0.38
71.58,0.415
71.595,0.344
71.61,0.506
71.625,0.418
71.64,0.281
71.655,0.289
71.67,0.267
71.685,0.461
71.7,0.531
71.715,0.493
71.73,0.462
71.745,0.386
71.76,0.266
71.775,0.38
71.79,0.259
71.805,0.258
71.82,0.202
71.835,0.256
71.85,0.361
71.865,0.489
71.88,0.415
71.895,0.413
71.91,0.283
71.925,0.321
71.94,0.445
71.955,0.472
71.97,0.363
71.985,0.207
72,0.358
72.015,0.365
72.03,0.161
72.045,0.207
72.06,0.353
72.075,0.411
72.09,0.49
72.105,0.407
72.12,0.391
72.135,0.419
72.15,0.376
72.165,0.475
72.18,0.386
72.195,0.279
72.21,0.367
72.225,0.426
72.24,0.432
72.255,0.476
72.27,0.425
72.285,0.421
72.3,0.603
72.315,0.553
72.33,0.414
72.345,0.43
72.36,0.471
72.375,0.483
72.39,0.511
72.405,0.559
72.42,0.497
72.435,0.407
72.45,0.432
72.465,0.51
72.48,0.579
72.495,0.643
72.51,0.568
72.525,0.612
72.54,0.432
72.555,0.471
72.57,0.594
72.585,0.745
72.6,0.682
72.615,0.558
72.63,0.605
72.645,0.433
72.66,0.473
72.675,0.486
72.69,0.618
72.705,0.577
72.72,0.504
72.735,0.503
72.75,0.648
72.765,0.747
72.78,0.657
72.795,0.593
72.81,0.551
72.825,0.497
72.84,0.591
72.855,0.63
72.87,0.619
72.885,0.562
72.9,0.523
72.915,0.604
72.93,0.711
72.945,0.723
72.96,0.688
72.975,0.788
72.99,0.86
73.005,0.704
73.02,0.776
73.035,0.742
73.05,0.672
73.065,0.752
73.08,0.691
73.095,0.674
73.11,0.772
73.125,0.739
73.14,0.782
73.155,0.861
73.17,0.671
73.185,0.658
73.2,0.719
73.215,0.754
73.23,0.875
73.245,0.78
73.26,0.728
73.275,0.693
73.29,0.715
73.305,0.865
73.32,0.875
73.335,0.886
73.35,0.876
73.365,0.737
73.38,0.783
73.395,0.902
73.41,0.912
73.425,0.887
73.44,0.808
73.455,0.912
73.47,1.091
73.485,1.088
73.5,0.952
73.515,0.932
73.53,0.914
73.545,0.905
73.56,0.895
73.575,0.971
73.59,0.986
73.605,0.928
73.62,0.906
73.635,0.924
73.65,0.843
73.665,0.838
73.68,0.918
73.695,1.024
73.71,0.968
73.725,0.856
73.74,0.827
73.755,1.014
73.77,0.966
73.785,0.896
73.8,0.927
73.815,0.973
73.83,1.006
73.845,1.006
73.86,1.087
73.875,0.936
73.89,0.994
73.905,1.029
73.92,1.007
73.935,1.099
73.95,1.061
73.965,1.018
73.98,1.06
73.995,1.008
74.01,0.981
74.025,0.999
74.04,0.986
74.055,1.017
74.07,1.118
74.085,1.16
74.1,1.053
74.115,1.063
74.13,1.013
74.145,1.005
74.16,1.18
74.175,1.183
74.19,0.996
74.205,1.027
74.22,1.124
74.235,1.213
74.25,1.206
74.265,1.097
74.28,1.118
74.295,1.158
74.31,1.176
74.325,1.154
74.34,1.128
74.355,1.067
74.37,1.022
74.385,1.216
74.4,1.325
74.415,1.271
74.43,1.134
74.445,1.055
74.46,1.221
74.475,1.347
74.49,1.231
74.505,1.204
74.52,1.188
74.535,1.128
74.55,1.238
74.565,1.173
74.58,1.083
74.595,1.178
74.61,1.194
74.625,1.168
74.64,1.384
74.655,1.315
74.67,1.294
74.685,1.263
74.7,1.255
74.715,1.247
74.73,1.186
74.745,1.183
74.76,1.268
74.775,1.377
74.79,1.418
74.805,1.341
74.82,1.266
74.835,1.192
74.85,1.253
74.865,1.295
74.88,1.378
74.895,1.317
74.91,1.288
74.925,1.306
74.94,1.294
74.955,1.266
74.97,1.403
74.985,1.424
75,1.131
75.015,1.1
75.03,0.935
75.045,0.697
75.06,0.688
75.075,0.784
75.09,0.748
75.105,0.683
75.12,0.722
75.135,0.634
75.15,0.739
75.165,0.831
75.18,0.676
75.195,0.609
75.21,0.515
75.225,0.415
75.24,0.412
75.255,0.587
75.27,0.448
75.285,0.223
75.3,0.152
75.315,0.662
75.33,0.532
75.345,0
