24.99,23.155
25.005,23.015
25.02,22.977
25.035,22.959
25.05,23.105
25.065,23.108
25.08,23.06
25.095,23.072
25.11,23.067
25.125,23.077
25.14,23.05
25.155,22.922
25.17,22.896
25.185,22.921
25.2,23.059
25.215,23.066
25.23,23.03
25.245,23.068
25.26,23.048
25.275,23.007
25.29,22.994
25.305,22.96
25.32,23
25.335,23.031
25.35,22.968
25.365,22.928
25.38,22.942
25.395,22.937
25.41,22.912
25.425,22.925
25.44,22.908
25.455,22.886
25.47,22.966
25.485,22.924
25.5,22.835
25.515,22.816
25.53,22.852
25.545,22.799
25.56,22.82
25.575,22.868
25.59,22.869
25.605,22.792
25.62,22.81
25.635,22.891
25.65,22.819
25.665,22.737
25.68,22.773
25.695,22.801
25.71,22.803
25.725,22.781
25.74,22.813
25.755,22.767
25.77,22.764
25.785,22.764
25.8,22.74
25.815,22.769
25.83,22.801
25.845,22.809
25.86,22.785
25.875,22.755
25.89,22.783
25.905,22.785
25.92,22.74
25.935,22.72
25.95,22.694
25.965,22.715
25.98,22.747
25.995,22.741
26.01,22.777
26.025,22.733
26.04,22.672
26.055,22.689
26.07,22.658
26.085,22.578
26.1,22.583
26.115,22.607
26.13,22.602
26.145,22.599
26.16,22.64
26.175,22.639
26.19,22.631
26.205,22.6
26.22,22.572
26.235,22.571
26.25,22.606
26.265,22.642
26.28,22.62
26.295,22.611
26.31,22.633
26.325,22.573
26.34,22.55
26.355,22.554
26.37,22.558
26.385,22.564
26.4,22.526
26.415,22.533
26.43,22.498
26.445,22.511
26.46,22.501
26.475,22.478
26.49,22.501
26.505,22.504
26.52,22.481
26.535,22.468
26.55,22.475
26.565,22.518
26.58,22.533
26.595,22.505
26.61,22.481
26.625,22.467
26.64,22.421
26.655,22.411
26.67,22.409
26.685,22.42
26.7,22.434
26.715,22.444
26.73,22.488
26.745,22.45
26.76,22.354
26.775,22.326
26.79,22.393
26.805,22.407
26.82,22.419
26.835,22.394
26.85,22.422
26.865,22.409
26.88,22.373
26.895,22.369
26.91,22.372
26.925,22.405
26.94,22.372
26.955,22.34
26.97,22.373
26.985,22.324
27,22.366
27.015,22.344
27.03,22.274
27.045,22.287
27.06,22.318
27.075,22.334
27.09,22.359
27.105,22.389
27.12,22.322
27.135,22.287
27.15,22.328
27.165,22.295
27.18,22.278
27.195,22.258
27.21,22.284
27.225,22.288
27.24,22.257
27.255,22.238
27.27,22.2
27.285,22.235
27.3,22.288
27.315,22.239
27.33,22.243
27.345,22.286
27.36,22.238
27.375,22.21
27.39,22.191
27.405,22.235
27.42,22.216
27.435,22.237
27.45,22.199
27.465,22.185
27.48,22.22
27.495,22.159
27.51,22.162
27.525,22.21
27.54,22.209
27.555,22.229
27.57,22.195
27.585,22.151
27.6,22.161
27.615,22.172
27.63,22.185
27.645,22.16
27.66,22.15
27.675,22.175
27.69,22.122
27.705,22.155
27.72,22.166
27.735,22.131
27.75,22.118
27.765,22.13
27.78,22.115
27.795,22.154
27.81,22.177
27.825,22.146
27.84,22.121
27.855,22.139
27.87,22.192
27.885,22.181
27.9,22.145
27.915,22.165
27.93,22.101
27.945,22.131
27.96,22.187
27.975,22.162
27.99,22.156
28.005,22.186
28.02,22.211
28.035,22.193
28.05,22.184
28.065,22.194
28.08,22.163
28.095,22.157
28.11,22.184
28.125,22.199
28.14,22.166
28.155,22.174
28.17,22.205
28.185,22.22
28.2,22.191
28.215,22.164
28.23,22.174
28.245,22.157
28.26,22.191
28.275,22.187
28.29,22.169
28.305,22.157
28.32,22.194
28.335,22.171
28.35,22.198
28.365,22.239
28.38,22.2
28.395,22.199
28.41,22.191
28.425,22.206
28.44,22.189
28.455,22.23
28.47,22.236
28.485,22.18
28.5,22.169
28.515,22.199
28.53,22.247
28.545,22.208
28.56,22.181
28.575,22.247
28.59,22.243
28.605,22.234
28.62,22.224
28.635,22.267
28.65,22.241
28.665,22.264
28.68,22.268
28.695,22.249
28.71,22.234
28.725,22.189
28.74,22.239
28.755,22.267
28.77,22.217
28.785,22.227
28.8,22.185
28.815,22.209
28.83,22.251
28.845,22.3
28.86,22.286
28.875,22.278
28.89,22.306
28.905,22.276
28.92,22.261
28.935,22.286
28.95,22.238
28.965,22.247
28.98,22.262
28.995,22.28
29.01,22.265
29.025,22.253
29.04,22.302
29.055,22.299
29.07,22.32
29.085,22.314
29.1,22.321
29.115,22.335
29.13,22.329
29.145,22.335
29.16,22.371
29.175,22.378
29.19,22.376
29.205,22.391
29.22,22.395
29.235,22.372
29.25,22.371
29.265,22.413
29.28,22.439
29.295,22.432
29.31,22.428
29.325,22.463
29.34,22.438
29.355,22.441
29.37,22.406
29.385,22.414
29.4,22.435
29.415,22.452
29.43,22.501
29.445,22.489
29.46,22.453
29.475,22.441
29.49,22.493
29.505,22.532
29.52,22.532
29.535,22.547
29.55,22.499
29.565,22.487
29.58,22.483
29.595,22.521
29.61,22.525
29.625,22.544
29.64,22.522
29.655,22.565
29.67,22.548
29.685,22.551
29.7,22.549
29.715,22.611
29.73,22.615
29.745,22.598
29.76,22.631
29.775,22.65
29.79,22.647
29.805,22.646
29.82,22.661
29.835,22.653
29.85,22.668
29.865,22.636
29.88,22.67
29.895,22.699
29.91,22.662
29.925,22.658
29.94,22.668
29.955,22.717
29.97,22.71
29.985,22.679
30,22.697
30.015,22.653
30.03,22.721
30.045,22.737
30.06,22.711
30.075,22.721
30.09,22.733
30.105,22.676
30.12,22.668
30.135,22.65
30.15,22.678
30.165,22.716
30.18,22.705
30.195,22.68
30.21,22.647
30.225,22.696
30.24,22.686
30.255,22.66
30.27,22.704
30.285,22.682
30.3,22.696
30.315,22.705
30.33,22.659
30.345,22.65
30.36,22.662
30.375,22.71
30.39,22.703
30.405,22.65
30.42,22.668
30.435,22.629
30.45,22.603
30.465,22.651
30.48,22.658
30.495,22.659
30.51,22.668
30.525,22.6
30.54,22.641
30.555,22.671
30.57,22.622
30.585,22.605
30.6,22.585
30.615,22.643
30.63,22.648
30.645,22.563
30.66,22.562
30.675,22.61
30.69,22.506
30.705,22.475
30.72,22.503
30.735,22.502
30.75,22.485
30.765,22.497
30.78,22.507
30.795,22.512
30.81,22.526
30.825,22.458
30.84,22.437
30.855,22.443
30.87,22.464
30.885,22.471
30.9,22.459
30.915,22.431
30.93,22.41
30.945,22.36
30.96,22.377
30.975,22.405
30.99,22.42
31.005,22.385
31.02,22.369
31.035,22.375
31.05,22.369
31.065,22.361
31.08,22.369
31.095,22.354
31.11,22.323
31.125,22.29
31.14,22.292
31.155,22.289
31.17,22.31
31.185,22.306
31.2,22.33
31.215,22.342
31.23,22.314
31.245,22.324
31.26,22.291
31.275,22.276
31.29,22.275
31.305,22.275
31.32,22.279
31.335,22.242
31.35,22.22
31.365,22.247
31.38,22.246
31.395,22.229
31.41,22.215
31.425,22.215
31.44,22.196
31.455,22.212
31.47,22.26
31.485,22.248
31.5,22.258
31.515,22.28
31.53,22.218
31.545,22.209
31.56,22.208
31.575,22.191
31.59,22.199
31.605,22.176
31.62,22.168
31.635,22.177
31.65,22.201
31.665,22.187
31.68,22.151
31.695,22.18
31.71,22.191
31.725,22.178
31.74,22.174
31.755,22.167
31.77,22.148
31.785,22.182
31.8,22.224
31.815,22.222
31.83,22.165
31.845,22.147
31.86,22.242
31.875,22.224
31.89,22.2
31.905,22.157
31.92,22.149
31.935,22.151
31.95,22.121
31.965,22.174
31.98,22.178
31.995,22.13
32.01,22.102
32.025,22.107
32.04,22.119
32.055,22.132
32.07,22.143
32.085,22.131
32.1,22.126
32.115,22.127
32.13,22.14
32.145,22.165
32.16,22.135
32.175,22.145
32.19,22.131
32.205,22.112
32.22,22.134
32.235,22.128
32.25,22.168
32.265,22.143
32.28,22.159
32.295,22.144
32.31,22.149
32.325,22.158
32.34,22.154
32.355,22.153
32.37,22.125
32.385,22.135
32.4,22.134
32.415,22.106
32.43,22.093
32.445,22.108
32.46,22.132
32.475,22.118
32.49,22.092
32.505,22.099
32.52,22.1
32.535,22.13
32.55,22.143
32.565,22.192
32.58,22.198
32.595,22.169
32.61,22.179
32.625,22.119
32.64,22.062
32.655,22.138
32.67,22.184
32.685,22.185
32.7,22.234
32.715,22.237
32.73,22.192
32.745,22.133
32.76,22.123
32.775,22.169
32.79,22.172
32.805,22.155
32.82,22.167
32.835,22.19
32.85,22.162
32.865,22.154
32.88,22.131
32.895,22.186
32.91,22.173
32.925,22.149
32.94,22.192
32.955,22.185
32.97,22.141
32.985,22.149
33,22.177
33.015,22.186
33.03,22.163
33.045,22.141
33.06,22.151
33.075,22.185
33.09,22.203
33.105,22.229
33.12,22.112
33.135,22.11
33.15,22.163
33.165,22.16
33.18,22.173
33.195,22.201
33.21,22.174
33.225,22.216
33.24,22.238
33.255,22.202
33.27,22.227
33.285,22.228
33.3,22.172
33.315,22.155
33.33,22.184
33.345,22.183
33.36,22.197
33.375,22.19
33.39,22.215
33.405,22.23
33.42,22.224
33.435,22.255
33.45,22.246
33.465,22.245
33.48,22.241
33.495,22.229
33.51,22.277
33.525,22.293
33.54,22.306
33.555,22.256
33.57,22.285
33.585,22.29
33.6,22.263
33.615,22.265
33.63,22.287
33.645,22.299
33.66,22.301
33.675,22.31
33.69,22.315
33.705,22.323
33.72,22.32
33.735,22.338
33.75,22.343
33.765,22.369
33.78,22.36
33.795,22.406
33.81,22.379
33.825,22.367
33.84,22.397
33.855,22.376
33.87,22.436
33.885,22.5
33.9,22.507
33.915,22.441
33.93,22.4
33.945,22.428
33.96,22.423
33.975,22.466
33.99,22.477
34.005,22.473
34.02,22.533
34.035,22.529
34.05,22.54
34.065,22.541
34.08,22.553
34.095,22.578
34.11,22.593
34.125,22.598
34.14,22.59
34.155,22.603
34.17,22.631
34.185,22.664
34.2,22.672
34.215,22.653
34.23,22.629
34.245,22.675
34.26,22.724
34.275,22.753
34.29,22.789
34.305,22.841
34.32,22.857
34.335,22.884
34.35,22.924
34.365,22.905
34.38,22.89
34.395,22.901
34.41,22.963
34.425,22.992
34.44,22.971
34.455,22.979
34.47,23.033
34.485,23.064
34.5,23.033
34.515,23.055
34.53,23.136
34.545,23.168
34.56,23.222
34.575,23.25
34.59,23.286
34.605,23.344
34.62,23.369
34.635,23.33
34.65,23.365
34.665,23.419
34.68,23.416
34.695,23.477
34.71,23.553
34.725,23.555
34.74,23.605
34.755,23.627
34.77,23.648
34.785,23.631
34.8,23.66
34.815,23.747
34.83,23.711
34.845,23.68
34.86,23.747
34.875,23.823
34.89,23.872
34.905,23.907
34.92,23.902
34.935,23.867
34.95,23.87
34.965,23.935
34.98,23.988
34.995,24.013
35.01,24.009
35.025,24.077
35.04,24.079
35.055,24.108
35.07,24.115
35.085,24.152
35.1,24.223
35.115,24.252
35.13,24.259
35.145,24.256
35.16,24.235
35.175,24.288
35.19,24.282
35.205,24.312
35.22,24.342
35.235,24.362
35.25,24.304
35.265,24.319
35.28,24.36
35.295,24.395
35.31,24.431
35.325,24.415
35.34,24.382
35.355,24.411
35.37,24.428
35.385,24.406
35.4,24.349
35.415,24.367
35.43,24.375
35.445,24.403
35.46,24.397
35.475,24.391
35.49,24.383
35.505,24.36
35.52,24.369
35.535,24.35
35.55,24.317
35.565,24.273
35.58,24.279
35.595,24.265
35.61,24.259
35.625,24.254
35.64,24.247
35.655,24.244
35.67,24.219
35.685,24.164
35.7,24.101
35.715,24.133
35.73,24.135
35.745,24.118
35.76,24.099
35.775,24.06
35.79,24.073
35.805,23.992
35.82,23.967
35.835,23.933
35.85,23.892
35.865,23.841
35.88,23.898
35.895,23.896
35.91,23.768
35.925,23.715
35.94,23.783
35.955,23.786
35.97,23.748
35.985,23.693
36,23.652
36.015,23.632
36.03,23.572
36.045,23.512
36.06,23.47
36.075,23.476
36.09,23.481
36.105,23.439
36.12,23.451
36.135,23.443
36.15,23.411
36.165,23.344
36.18,23.308
36.195,23.279
36.21,23.291
36.225,23.303
36.24,23.252
36.255,23.223
36.27,23.179
36.285,23.169
36.3,23.137
36.315,23.134
36.33,23.128
36.345,23.103
36.36,23.1
36.375,23.107
36.39,23.084
36.405,23.071
36.42,23.046
36.435,23.028
36.45,23.035
36.465,23.046
36.48,23.037
36.495,23.054
36.51,23.069
36.525,23.052
36.54,23.016
36.555,23.029
36.57,23.068
36.585,23.057
36.6,23.081
36.615,23.043
36.63,23.027
36.645,23.02
36.66,23.018
36.675,23.002
36.69,23.069
36.705,23.138
36.72,23.106
36.735,23.042
36.75,23.064
36.765,23.071
36.78,23.022
36.795,23.015
36.81,23.016
36.825,22.994
36.84,23.004
36.855,22.962
36.87,22.959
36.885,22.987
36.9,22.941
36.915,22.899
36.93,22.907
36.945,22.954
36.96,22.87
36.975,22.833
36.99,22.809
37.005,22.743
37.02,22.742
37.035,22.744
37.05,22.681
37.065,22.599
37.08,22.584
37.095,22.573
37.11,22.554
37.125,22.483
37.14,22.473
37.155,22.419
37.17,22.318
37.185,22.305
37.2,22.343
37.215,22.296
37.23,22.252
37.245,22.24
37.26,22.192
37.275,22.135
37.29,22.116
37.305,22.086
37.32,22.003
37.335,22.029
37.35,22.012
37.365,22.013
37.38,21.989
37.395,21.947
37.41,21.918
37.425,21.916
37.44,21.903
37.455,21.858
37.47,21.86
37.485,21.924
37.5,21.887
37.515,21.871
37.53,21.936
37.545,21.899
37.56,21.842
37.575,21.833
37.59,21.84
37.605,21.777
37.62,21.709
37.635,21.771
37.65,21.805
37.665,21.757
37.68,21.761
37.695,21.791
37.71,21.756
37.725,21.736
37.74,21.724
37.755,21.734
37.77,21.748
37.785,21.751
37.8,21.705
37.815,21.739
37.83,21.749
37.845,21.716
37.86,21.714
37.875,21.686
37.89,21.682
37.905,21.629
37.92,21.637
37.935,21.643
37.95,21.686
37.965,21.627
37.98,21.625
37.995,21.644
38.01,21.625
38.025,21.611
38.04,21.597
38.055,21.57
38.07,21.583
38.085,21.61
38.1,21.621
38.115,21.613
38.13,21.595
38.145,21.584
38.16,21.598
38.175,21.653
38.19,21.618
38.205,21.606
38.22,21.59
38.235,21.537
38.25,21.513
38.265,21.562
38.28,21.565
38.295,21.552
38.31,21.545
38.325,21.522
38.34,21.518
38.355,21.527
38.37,21.553
38.385,21.596
38.4,21.611
38.415,21.582
38.43,21.529
38.445,21.534
38.46,21.59
38.475,21.547
38.49,21.542
38.505,21.553
38.52,21.57
38.535,21.534
38.55,21.531
38.565,21.519
38.58,21.568
38.595,21.559
38.61,21.486
38.625,21.511
38.64,21.545
38.655,21.531
38.67,21.535
38.685,21.51
38.7,21.499
38.715,21.516
38.73,21.488
38.745,21.495
38.76,21.51
38.775,21.468
38.79,21.471
38.805,21.523
38.82,21.537
38.835,21.507
38.85,21.481
38.865,21.45
38.88,21.464
38.895,21.487
38.91,21.529
38.925,21.477
38.94,21.452
38.955,21.482
38.97,21.493
38.985,21.443
39,21.45
39.015,21.462
39.03,21.451
39.045,21.424
39.06,21.456
39.075,21.464
39.09,21.455
39.105,21.458
39.12,21.474
39.135,21.468
39.15,21.41
39.165,21.417
39.18,21.468
39.195,21.479
39.21,21.44
39.225,21.399
39.24,21.35
39.255,21.31
39.27,21.364
39.285,21.44
39.3,21.428
39.315,21.393
39.33,21.437
39.345,21.421
39.36,21.443
39.375,21.431
39.39,21.407
39.405,21.419
39.42,21.424
39.435,21.368
39.45,21.39
39.465,21.41
39.48,21.356
39.495,21.361
39.51,21.402
39.525,21.397
39.54,21.397
39.555,21.363
39.57,21.317
39.585,21.364
39.6,21.392
39.615,21.397
39.63,21.406
39.645,21.393
39.66,21.386
39.675,21.384
39.69,21.378
39.705,21.411
39.72,21.367
39.735,21.345
39.75,21.376
39.765,21.376
39.78,21.34
39.795,21.336
39.81,21.336
39.825,21.388
39.84,21.393
39.855,21.405
39.87,21.356
39.885,21.338
39.9,21.336
39.915,21.323
39.93,21.366
39.945,21.394
39.96,21.399
39.975,21.349
39.99,21.314
40.005,21.332
40.02,21.301
40.035,21.363
40.05,21.42
40.065,21.397
40.08,21.343
40.095,21.308
40.11,21.351
40.125,21.331
40.14,21.368
40.155,21.364
40.17,21.292
40.185,21.296
40.2,21.337
40.215,21.345
40.23,21.326
40.245,21.37
40.26,21.332
40.275,21.317
40.29,21.334
40.305,21.306
40.32,21.324
40.335,21.341
40.35,21.321
40.365,21.345
40.38,21.352
40.395,21.367
40.41,21.424
40.425,21.356
40.44,21.295
40.455,21.346
40.47,21.344
40.485,21.332
40.5,21.339
40.515,21.36
40.53,21.353
40.545,21.312
40.56,21.333
40.575,21.369
40.59,21.346
40.605,21.306
40.62,21.287
40.635,21.299
40.65,21.301
40.665,21.297
40.68,21.304
40.695,21.305
40.71,21.292
40.725,21.278
40.74,21.277
40.755,21.312
40.77,21.334
40.785,21.34
40.8,21.277
40.815,21.266
40.83,21.328
40.845,21.321
40.86,21.283
40.875,21.306
40.89,21.338
40.905,21.328
40.92,21.343
40.935,21.332
40.95,21.316
40.965,21.334
40.98,21.325
40.995,21.298
41.01,21.288
41.025,21.265
41.04,21.291
41.055,21.294
41.07,21.337
41.085,21.344
41.1,21.306
41.115,21.283
41.13,21.29
41.145,21.297
41.16,21.311
41.175,21.272
41.19,21.288
41.205,21.293
41.22,21.322
41.235,21.359
41.25,21.333
41.265,21.29
41.28,21.262
41.295,21.264
41.31,21.311
41.325,21.333
41.34,21.328
41.355,21.316
41.37,21.32
41.385,21.326
41.4,21.387
41.415,21.391
41.43,21.372
41.445,21.381
41.46,21.361
41.475,21.35
41.49,21.357
41.505,21.332
41.52,21.358
41.535,21.422
41.55,21.435
41.565,21.401
41.58,21.415
41.595,21.425
41.61,21.468
41.625,21.475
41.64,21.518
41.655,21.533
41.67,21.495
41.685,21.516
41.7,21.489
41.715,21.526
41.73,21.579
41.745,21.585
41.76,21.626
41.775,21.63
41.79,21.557
41.805,21.585
41.82,21.613
41.835,21.635
41.85,21.669
41.865,21.646
41.88,21.628
41.895,21.674
41.91,21.682
41.925,21.713
41.94,21.697
41.955,21.708
41.97,21.696
41.985,21.682
42,21.745
42.015,21.766
42.03,21.791
42.045,21.762
42.06,21.736
42.075,21.719
42.09,21.702
42.105,21.743
42.12,21.745
42.135,21.756
42.15,21.73
42.165,21.707
42.18,21.719
42.195,21.746
42.21,21.727
42.225,21.72
42.24,21.733
42.255,21.759
42.27,21.775
42.285,21.775
42.3,21.767
42.315,21.783
42.33,21.848
42.345,21.883
42.36,21.848
42.375,21.853
42.39,21.891
42.405,21.968
42.42,21.933
42.435,21.936
42.45,22.05
42.465,22.087
42.48,22.109
42.495,22.183
42.51,22.23
42.525,22.232
42.54,22.294
42.555,22.336
42.57,22.407
42.585,22.464
42.6,22.524
42.615,22.533
42.63,22.599
42.645,22.677
42.66,22.728
42.675,22.761
42.69,22.868
42.705,22.923
42.72,22.97
42.735,23.037
42.75,23.066
42.765,23.103
42.78,23.126
42.795,23.187
42.81,23.217
42.825,23.218
42.84,23.277
42.855,23.337
42.87,23.321
42.885,23.325
42.9,23.322
42.915,23.292
42.93,23.271
42.945,23.272
42.96,23.267
42.975,23.206
42.99,23.203
43.005,23.146
43.02,23.059
43.035,23.041
43.05,23.001
43.065,22.931
43.08,22.883
43.095,22.813
43.11,22.766
43.125,22.673
43.14,22.617
43.155,22.561
43.17,22.554
43.185,22.443
43.2,22.322
43.215,22.279
43.23,22.251
43.245,22.154
43.26,22.043
43.275,22.04
43.29,21.982
43.305,21.92
43.32,21.88
43.335,21.841
43.35,21.831
43.365,21.801
43.38,21.728
43.395,21.638
43.41,21.651
43.425,21.629
43.44,21.603
43.455,21.574
43.47,21.587
43.485,21.541
43.5,21.508
43.515,21.484
43.53,21.525
43.545,21.513
43.56,21.446
43.575,21.475
43.59,21.5
43.605,21.485
43.62,21.436
43.635,21.467
43.65,21.46
43.665,21.452
43.68,21.495
43.695,21.478
43.71,21.461
43.725,21.458
43.74,21.408
43.755,21.344
43.77,21.331
43.785,21.332
43.8,21.326
43.815,21.333
43.83,21.337
43.845,21.301
43.86,21.276
43.875,21.283
43.89,21.296
43.905,21.306
43.92,21.246
43.935,21.201
43.95,21.23
43.965,21.242
43.98,21.203
43.995,21.206
44.01,21.133
44.025,21.109
44.04,21.122
44.055,21.113
44.07,21.101
44.085,21.106
44.1,21.102
44.115,21.1
44.13,21.072
44.145,21.09
44.16,21.083
44.175,21.025
44.19,21.063
44.205,21.085
44.22,21.093
44.235,21.085
44.25,21.085
44.265,21.07
44.28,21.069
44.295,21.053
44.31,21.075
44.325,21.068
44.34,21.04
44.355,21.059
44.37,21.024
44.385,21.025
44.4,21.068
44.415,21.088
44.43,21.027
44.445,21.007
44.46,21.043
44.475,20.995
44.49,20.993
44.505,20.97
44.52,20.949
44.535,20.977
44.55,20.926
44.565,20.961
44.58,20.983
44.595,20.978
44.61,20.95
44.625,20.967
44.64,20.965
44.655,20.971
44.67,20.921
44.685,20.951
44.7,20.989
44.715,20.955
44.73,20.991
44.745,21.007
44.76,20.971
44.775,20.943
44.79,20.969
44.805,21.013
44.82,20.963
44.835,20.928
44.85,20.942
44.865,20.922
44.88,20.926
44.895,20.941
44.91,20.937
44.925,20.95
44.94,20.942
44.955,20.922
44.97,20.918
44.985,20.911
45,20.963
45.015,20.949
45.03,20.883
45.045,20.871
45.06,20.864
45.075,20.894
45.09,20.937
45.105,20.887
45.12,20.884
45.135,20.933
45.15,20.943
45.165,20.924
45.18,20.936
45.195,20.934
45.21,20.933
45.225,20.9
45.24,20.92
45.255,20.941
45.27,20.945
45.285,20.923
45.3,20.902
45.315,20.884
45.33,20.921
45.345,20.936
45.36,20.901
45.375,20.888
45.39,20.906
45.405,20.879
45.42,20.872
45.435,20.89
45.45,20.915
45.465,20.916
45.48,20.926
45.495,20.88
45.51,20.9
45.525,20.917
45.54,20.882
45.555,20.856
45.57,20.876
45.585,20.835
45.6,20.811
45.615,20.817
45.63,20.875
45.645,20.861
45.66,20.843
45.675,20.833
45.69,20.862
45.705,20.824
45.72,20.821
45.735,20.871
45.75,20.888
45.765,20.84
45.78,20.864
45.795,20.896
45.81,20.891
45.825,20.86
45.84,20.82
45.855,20.829
45.87,20.854
45.885,20.826
45.9,20.844
45.915,20.87
45.93,20.901
45.945,20.882
45.96,20.822
45.975,20.836
45.99,20.851
46.005,20.869
46.02,20.847
46.035,20.857
46.05,20.871
46.065,20.848
46.08,20.824
46.095,20.832
46.11,20.838
46.125,20.813
46.14,20.815
46.155,20.838
46.17,20.843
46.185,20.865
46.2,20.874
46.215,20.843
46.23,20.809
46.245,20.826
46.26,20.864
46.275,20.877
46.29,20.829
46.305,20.788
46.32,20.813
46.335,20.855
46.35,20.868
46.365,20.841
46.38,20.793
46.395,20.809
46.41,20.797
46.425,20.777
46.44,20.783
46.455,20.8
46.47,20.791
46.485,20.774
46.5,20.809
46.515,20.819
46.53,20.813
46.545,20.829
46.56,20.826
46.575,20.817
46.59,20.847
46.605,20.838
46.62,20.795
46.635,20.76
46.65,20.807
46.665,20.847
46.68,20.775
46.695,20.766
46.71,20.803
46.725,20.744
46.74,20.782
46.755,20.822
46.77,20.846
46.785,20.806
46.8,20.788
46.815,20.824
46.83,20.8
46.845,20.798
46.86,20.795
46.875,20.743
46.89,20.738
46.905,20.779
46.92,20.764
46.935,20.756
46.95,20.776
46.965,20.818
46.98,20.802
46.995,20.787
47.01,20.756
47.025,20.763
47.04,20.751
47.055,20.704
47.07,20.761
47.085,20.74
47.1,20.737
47.115,20.79
47.13,20.812
47.145,20.778
47.16,20.749
47.175,20.786
47.19,20.777
47.205,20.796
47.22,20.805
47.235,20.775
47.25,20.737
47.265,20.759
47.28,20.771
47.295,20.731
47.31,20.697
47.325,20.68
47.34,20.737
47.355,20.772
47.37,20.78
47.385,20.722
47.4,20.686
47.415,20.726
47.43,20.736
47.445,20.734
47.46,20.695
47.475,20.733
47.49,20.755
47.505,20.716
47.52,20.739
47.535,20.744
47.55,20.72
47.565,20.742
47.58,20.76
47.595,20.74
47.61,20.696
47.625,20.705
47.64,20.707
47.655,20.719
47.67,20.711
47.685,20.726
47.7,20.746
47.715,20.752
47.73,20.723
47.745,20.741
47.76,20.738
47.775,20.737
47.79,20.726
47.805,20.76
47.82,20.75
47.835,20.709
47.85,20.707
47.865,20.733
47.88,20.722
47.895,20.714
47.91,20.686
47.925,20.668
47.94,20.673
47.955,20.697
47.97,20.732
47.985,20.733
48,20.669
48.015,20.653
48.03,20.682
48.045,20.645
48.06,20.661
48.075,20.732
48.09,20.695
48.105,20.681
48.12,20.674
48.135,20.695
48.15,20.681
48.165,20.69
48.18,20.695
48.195,20.677
48.21,20.742
48.225,20.711
48.24,20.617
48.255,20.637
48.27,20.701
48.285,20.677
48.3,20.639
48.315,20.641
48.33,20.683
48.345,20.692
48.36,20.696
48.375,20.648
48.39,20.682
48.405,20.662
48.42,20.622
48.435,20.684
48.45,20.667
48.465,20.595
48.48,20.623
48.495,20.623
48.51,20.62
48.525,20.637
48.54,20.66
48.555,20.648
48.57,20.66
48.585,20.661
48.6,20.677
48.615,20.654
48.63,20.605
48.645,20.631
48.66,20.676
48.675,20.704
48.69,20.689
48.705,20.682
48.72,20.659
48.735,20.651
48.75,20.636
48.765,20.6
48.78,20.606
48.795,20.611
48.81,20.631
48.825,20.616
48.84,20.663
48.855,20.655
48.87,20.601
48.885,20.584
48.9,20.612
48.915,20.636
48.93,20.618
48.945,20.618
48.96,20.622
48.975,20.601
48.99,20.573
49.005,20.588
49.02,20.591
49.035,20.6
49.05,20.596
49.065,20.582
49.08,20.595
49.095,20.595
49.11,20.628
49.125,20.61
49.14,20.591
49.155,20.583
49.17,20.606
49.185,20.575
49.2,20.589
49.215,20.611
49.23,20.567
49.245,20.563
49.26,20.584
49.275,20.622
49.29,20.572
49.305,20.566
49.32,20.582
49.335,20.548
49.35,20.556
49.365,20.562
49.38,20.634
49.395,20.599
49.41,20.518
49.425,20.568
49.44,20.599
49.455,20.6
49.47,20.592
49.485,20.565
49.5,20.615
49.515,20.64
49.53,20.638
49.545,20.641
49.56,20.644
49.575,20.622
49.59,20.592
49.605,20.565
49.62,20.552
49.635,20.542
49.65,20.583
49.665,20.626
49.68,20.574
49.695,20.584
49.71,20.601
49.725,20.558
49.74,20.55
49.755,20.568
49.77,20.592
49.785,20.633
49.8,20.574
49.815,20.534
49.83,20.546
49.845,20.565
49.86,20.567
49.875,20.565
49.89,20.535
49.905,20.572
49.92,20.6
49.935,20.577
49.95,20.539
49.965,20.532
49.98,20.552
49.995,20.575
50.01,20.554
50.025,20.53
50.04,20.582
50.055,20.573
50.07,20.561
50.085,20.56
50.1,20.554
50.115,20.566
50.13,20.533
50.145,20.535
50.16,20.55
50.175,20.542
50.19,20.563
50.205,20.533
50.22,20.519
50.235,20.538
50.25,20.526
50.265,20.567
50.28,20.568
50.295,20.528
50.31,20.529
50.325,20.511
50.34,20.513
50.355,20.505
50.37,20.517
50.385,20.566
50.4,20.546
50.415,20.492
50.43,20.533
50.445,20.564
50.46,20.551
50.475,20.545
50.49,20.555
50.505,20.582
50.52,20.514
50.535,20.531
50.55,20.501
50.565,20.529
50.58,20.53
50.595,20.549
50.61,20.53
50.625,20.544
50.64,20.522
50.655,20.523
50.67,20.466
50.685,20.423
50.7,20.472
50.715,20.515
50.73,20.504
50.745,20.524
50.76,20.501
50.775,20.455
50.79,20.436
50.805,20.516
50.82,20.523
50.835,20.526
50.85,20.507
50.865,20.465
50.88,20.503
50.895,20.543
50.91,20.528
50.925,20.529
50.94,20.49
50.955,20.504
50.97,20.513
50.985,20.464
51,20.466
51.015,20.505
51.03,20.464
51.045,20.447
51.06,20.446
51.075,20.458
51.09,20.499
51.105,20.488
51.12,20.453
51.135,20.449
51.15,20.439
51.165,20.484
51.18,20.538
51.195,20.534
51.21,20.518
51.225,20.485
51.24,20.493
51.255,20.516
51.27,20.495
51.285,20.453
51.3,20.465
51.315,20.465
51.33,20.499
51.345,20.473
51.36,20.429
51.375,20.425
51.39,20.449
51.405,20.48
51.42,20.434
51.435,20.45
51.45,20.45
51.465,20.462
51.48,20.509
51.495,20.503
51.51,20.476
51.525,20.476
51.54,20.533
51.555,20.491
51.57,20.491
51.585,20.482
51.6,20.454
51.615,20.493
51.63,20.46
51.645,20.45
51.66,20.503
51.675,20.496
51.69,20.459
51.705,20.484
51.72,20.494
51.735,20.451
51.75,20.488
51.765,20.484
51.78,20.453
51.795,20.446
51.81,20.431
51.825,20.441
51.84,20.421
51.855,20.449
51.87,20.511
51.885,20.462
51.9,20.416
51.915,20.45
51.93,20.468
51.945,20.496
51.96,20.481
51.975,20.463
51.99,20.459
52.005,20.487
52.02,20.478
52.035,20.444
52.05,20.473
52.065,20.46
52.08,20.457
52.095,20.468
52.11,20.485
52.125,20.456
52.14,20.455
52.155,20.487
52.17,20.476
52.185,20.471
52.2,20.47
52.215,20.464
52.23,20.503
52.245,20.513
52.26,20.512
52.275,20.462
52.29,20.453
52.305,20.455
52.32,20.463
52.335,20.458
52.35,20.5
52.365,20.505
52.38,20.484
52.395,20.506
52.41,20.469
52.425,20.453
52.44,20.494
52.455,20.496
52.47,20.489
52.485,20.5
52.5,20.497
52.515,20.441
52.53,20.432
52.545,20.462
52.56,20.478
52.575,20.503
52.59,20.511
52.605,20.508
52.62,20.527
52.635,20.533
52.65,20.496
52.665,20.46
52.68,20.454
52.695,20.462
52.71,20.454
52.725,20.475
52.74,20.485
52.755,20.495
52.77,20.493
52.785,20.465
52.8,20.455
52.815,20.479
52.83,20.466
52.845,20.457
52.86,20.469
52.875,20.468
52.89,20.497
52.905,20.488
52.92,20.477
52.935,20.495
52.95,20.482
52.965,20.471
52.98,20.478
52.995,20.526
53.01,20.526
53.025,20.522
53.04,20.47
53.055,20.466
53.07,20.498
53.085,20.551
53.1,20.524
53.115,20.483
53.13,20.52
53.145,20.547
53.16,20.554
53.175,20.507
53.19,20.483
53.205,20.495
53.22,20.535
53.235,20.548
53.25,20.551
53.265,20.521
53.28,20.512
53.295,20.493
53.31,20.498
53.325,20.49
53.34,20.459
53.355,20.515
53.37,20.499
53.385,20.434
53.4,20.454
53.415,20.543
53.43,20.566
53.445,20.496
53.46,20.49
53.475,20.507
53.49,20.501
53.505,20.531
53.52,20.542
53.535,20.515
53.55,20.519
53.565,20.519
53.58,20.53
53.595,20.468
53.61,20.442
53.625,20.515
53.64,20.49
53.655,20.492
53.67,20.478
53.685,20.488
53.7,20.508
53.715,20.505
53.73,20.512
53.745,20.501
53.76,20.492
53.775,20.467
53.79,20.456
53.805,20.47
53.82,20.462
53.835,20.462
53.85,20.478
53.865,20.484
53.88,20.494
53.895,20.453
53.91,20.447
53.925,20.471
53.94,20.468
53.955,20.474
53.97,20.463
53.985,20.441
54,20.439
54.015,20.459
54.03,20.414
54.045,20.409
54.06,20.445
54.075,20.394
54.09,20.378
54.105,20.441
54.12,20.445
54.135,20.435
54.15,20.461
54.165,20.435
54.18,20.396
54.195,20.378
54.21,20.461
54.225,20.459
54.24,20.441
54.255,20.416
54.27,20.429
54.285,20.481
54.3,20.422
54.315,20.379
54.33,20.397
54.345,20.434
54.36,20.433
54.375,20.393
54.39,20.421
54.405,20.46
54.42,20.421
54.435,20.37
54.45,20.393
54.465,20.396
54.48,20.393
54.495,20.455
54.51,20.411
54.525,20.389
54.54,20.376
54.555,20.401
54.57,20.452
54.585,20.45
54.6,20.458
54.615,20.409
54.63,20.366
54.645,20.405
54.66,20.415
54.675,20.391
54.69,20.385
54.705,20.369
54.72,20.353
54.735,20.365
54.75,20.368
54.765,20.393
54.78,20.387
54.795,20.352
54.81,20.33
54.825,20.35
54.84,20.399
54.855,20.357
54.87,20.346
54.885,20.383
54.9,20.376
54.915,20.324
54.93,20.361
54.945,20.392
54.96,20.4
54.975,20.319
54.99,20.334
55.005,20.404
55.02,20.373
55.035,20.347
55.05,20.372
55.065,20.311
55.08,20.35
55.095,20.398
55.11,20.366
55.125,20.368
55.14,20.39
55.155,20.396
55.17,20.392
55.185,20.358
55.2,20.351
55.215,20.382
55.23,20.359
55.245,20.388
55.26,20.366
55.275,20.363
55.29,20.351
55.305,20.369
55.32,20.374
55.335,20.354
55.35,20.333
55.365,20.372
55.38,20.391
55.395,20.373
55.41,20.359
55.425,20.394
55.44,20.436
55.455,20.4
55.47,20.364
55.485,20.379
55.5,20.363
55.515,20.363
55.53,20.378
55.545,20.423
55.56,20.376
55.575,20.36
55.59,20.348
55.605,20.37
55.62,20.396
55.635,20.398
55.65,20.421
55.665,20.438
55.68,20.445
55.695,20.417
55.71,20.414
55.725,20.411
55.74,20.455
55.755,20.42
55.77,20.408
55.785,20.461
55.8,20.468
55.815,20.471
55.83,20.446
55.845,20.414
55.86,20.451
55.875,20.427
55.89,20.421
55.905,20.43
55.92,20.425
55.935,20.47
55.95,20.481
55.965,20.446
55.98,20.485
55.995,20.533
56.01,20.526
56.025,20.51
56.04,20.502
56.055,20.482
56.07,20.5
56.085,20.501
56.1,20.494
56.115,20.517
56.13,20.581
56.145,20.555
56.16,20.537
56.175,20.508
56.19,20.495
56.205,20.584
56.22,20.615
56.235,20.605
56.25,20.562
56.265,20.568
56.28,20.598
56.295,20.571
56.31,20.545
56.325,20.566
56.34,20.563
56.355,20.544
56.37,20.54
56.385,20.542
56.4,20.552
56.415,20.602
56.43,20.66
56.445,20.665
56.46,20.642
56.475,20.682
56.49,20.653
56.505,20.636
56.52,20.647
56.535,20.624
56.55,20.626
56.565,20.638
56.58,20.637
56.595,20.61
56.61,20.639
56.625,20.649
56.64,20.663
56.655,20.652
56.67,20.648
56.685,20.668
56.7,20.66
56.715,20.669
56.73,20.666
56.745,20.648
56.76,20.685
56.775,20.71
56.79,20.704
56.805,20.687
56.82,20.655
56.835,20.658
56.85,20.696
56.865,20.716
56.88,20.688
56.895,20.663
56.91,20.695
56.925,20.718
56.94,20.709
56.955,20.655
56.97,20.667
56.985,20.718
57,20.724
57.015,20.677
57.03,20.663
57.045,20.683
57.06,20.668
57.075,20.7
57.09,20.682
57.105,20.666
57.12,20.66
57.135,20.636
57.15,20.679
57.165,20.699
57.18,20.663
57.195,20.67
57.21,20.682
57.225,20.63
57.24,20.658
57.255,20.693
57.27,20.681
57.285,20.684
57.3,20.631
57.315,20.633
57.33,20.601
57.345,20.603
57.36,20.603
57.375,20.62
57.39,20.607
57.405,20.606
57.42,20.612
57.435,20.609
57.45,20.603
57.465,20.585
57.48,20.622
57.495,20.604
57.51,20.56
57.525,20.561
57.54,20.614
57.555,20.549
57.57,20.517
57.585,20.528
57.6,20.536
57.615,20.584
57.63,20.555
57.645,20.515
57.66,20.498
57.675,20.483
57.69,20.498
57.705,20.523
57.72,20.489
57.735,20.473
57.75,20.464
57.765,20.508
57.78,20.515
57.795,20.484
57.81,20.482
57.825,20.459
57.84,20.42
57.855,20.404
57.87,20.378
57.885,20.372
57.9,20.374
57.915,20.418
57.93,20.429
57.945,20.42
57.96,20.399
57.975,20.352
57.99,20.347
58.005,20.354
58.02,20.366
58.035,20.343
58.05,20.339
58.065,20.339
58.08,20.32
58.095,20.28
58.11,20.272
58.125,20.301
58.14,20.289
58.155,20.288
58.17,20.263
58.185,20.268
58.2,20.299
58.215,20.29
58.23,20.26
58.245,20.283
58.26,20.308
58.275,20.301
58.29,20.289
58.305,20.264
58.32,20.255
58.335,20.214
58.35,20.235
58.365,20.228
58.38,20.23
58.395,20.259
58.41,20.252
58.425,20.234
58.44,20.205
58.455,20.147
58.47,20.172
58.485,20.188
58.5,20.142
58.515,20.151
58.53,20.155
58.545,20.134
58.56,20.154
58.575,20.188
58.59,20.178
58.605,20.152
58.62,20.159
58.635,20.179
58.65,20.155
58.665,20.147
58.68,20.13
58.695,20.088
58.71,20.125
58.725,20.131
58.74,20.083
58.755,20.072
58.77,20.095
58.785,20.095
58.8,20.07
58.815,20.071
58.83,20.088
58.845,20.133
58.86,20.13
58.875,20.106
58.89,20.085
58.905,20.075
58.92,20.07
58.935,20.067
58.95,20.058
58.965,20.036
58.98,20.035
58.995,20.032
59.01,20.01
59.025,20.047
59.04,20.095
59.055,20.073
59.07,20.085
59.085,20.063
59.1,20.027
59.115,20.004
59.13,19.991
59.145,20.042
59.16,20.031
59.175,20.011
59.19,20.02
59.205,20.017
59.22,20.051
59.235,20.036
59.25,19.978
59.265,20.008
59.28,20.044
59.295,19.981
59.31,19.957
59.325,19.986
59.34,20.015
59.355,20.047
59.37,20.03
59.385,20.007
59.4,19.971
59.415,19.978
59.43,19.996
59.445,19.997
59.46,19.993
59.475,19.976
59.49,19.992
59.505,19.954
59.52,19.941
59.535,19.96
59.55,19.957
59.565,19.997
59.58,20.002
59.595,19.975
59.61,19.975
59.625,20.004
59.64,19.987
59.655,19.918
59.67,19.937
59.685,19.971
59.7,19.908
59.715,19.924
59.73,19.972
59.745,19.957
59.76,19.954
59.775,19.925
59.79,19.918
59.805,19.94
59.82,19.945
59.835,19.942
59.85,19.958
59.865,19.973
59.88,20.001
59.895,19.973
59.91,19.96
59.925,19.985
59.94,19.956
59.955,19.967
59.97,19.96
59.985,19.927
60,19.961
60.015,19.949
60.03,19.957
60.045,19.91
60.06,19.907
60.075,19.909
60.09,19.933
60.105,19.979
60.12,19.988
60.135,19.971
60.15,19.96
60.165,19.897
60.18,19.87
60.195,19.926
60.21,19.942
60.225,19.978
60.24,19.951
60.255,19.917
60.27,19.948
60.285,19.929
60.3,19.893
60.315,19.876
60.33,19.899
60.345,19.939
60.36,19.885
60.375,19.868
60.39,19.911
60.405,19.936
60.42,19.923
60.435,19.918
60.45,19.951
60.465,19.976
60.48,19.931
60.495,19.912
60.51,19.908
60.525,19.925
60.54,19.931
60.555,19.963
60.57,19.994
60.585,19.955
60.6,19.932
60.615,19.948
60.63,19.947
60.645,19.979
60.66,19.953
60.675,19.999
60.69,20.032
60.705,20.006
60.72,19.974
60.735,19.99
60.75,19.994
60.765,20.007
60.78,20.036
60.795,20.032
60.81,20.052
60.825,19.985
60.84,19.993
60.855,20.065
60.87,20.067
60.885,20.024
60.9,20.024
60.915,20.114
60.93,20.127
60.945,20.076
60.96,20.098
60.975,20.108
60.99,20.089
61.005,20.112
61.02,20.081
61.035,20.072
61.05,20.068
61.065,20.086
61.08,20.162
61.095,20.132
61.11,20.099
61.125,20.125
61.14,20.167
61.155,20.194
61.17,20.182
61.185,20.138
61.2,20.087
61.215,20.044
61.23,20.124
61.245,20.102
61.26,20.055
61.275,20.096
61.29,20.123
61.305,20.092
61.32,20.075
61.335,20.086
61.35,20.071
61.365,20.078
61.38,20.09
61.395,20.089
61.41,20.117
61.425,20.079
61.44,20.089
61.455,20.074
61.47,20.07
61.485,20.059
61.5,20.019
61.515,20.065
61.53,20.074
61.545,20.092
61.56,20.096
61.575,20.083
61.59,20.103
61.605,20.088
61.62,20.122
61.635,20.174
61.65,20.171
61.665,20.127
61.68,20.115
61.695,20.141
61.71,20.211
61.725,20.261
61.74,20.277
61.755,20.315
61.77,20.368
61.785,20.395
61.8,20.405
61.815,20.435
61.83,20.5
61.845,20.559
61.86,20.575
61.875,20.649
61.89,20.732
61.905,20.771
61.92,20.85
61.935,20.927
61.95,20.975
61.965,21.059
61.98,21.077
61.995,21.142
62.01,21.242
62.025,21.305
62.04,21.339
62.055,21.426
62.07,21.511
62.085,21.566
62.1,21.602
62.115,21.67
62.13,21.734
62.145,21.763
62.16,21.812
62.175,21.849
62.19,21.885
62.205,21.951
62.22,21.995
62.235,22.02
62.25,22.105
62.265,22.145
62.28,22.157
62.295,22.177
62.31,22.166
62.325,22.166
62.34,22.17
62.355,22.14
62.37,22.135
62.385,22.136
62.4,22.149
62.415,22.119
62.43,22.107
62.445,22.064
62.46,22.022
62.475,22.008
62.49,21.969
62.505,21.892
62.52,21.891
62.535,21.835
62.55,21.759
62.565,21.725
62.58,21.657
62.595,21.608
62.61,21.539
62.625,21.461
62.64,21.425
62.655,21.38
62.67,21.332
62.685,21.281
62.7,21.211
62.715,21.165
62.73,21.134
62.745,21.049
62.76,21.014
62.775,20.965
62.79,20.941
62.805,20.921
62.82,20.898
62.835,20.843
62.85,20.792
62.865,20.788
62.88,20.76
62.895,20.748
62.91,20.684
62.925,20.644
62.94,20.603
62.955,20.617
62.97,20.596
62.985,20.577
63,20.566
63.015,20.589
63.03,20.543
63.045,20.509
63.06,20.487
63.075,20.429
63.09,20.439
63.105,20.415
63.12,20.395
63.135,20.388
63.15,20.36
63.165,20.328
63.18,20.364
63.195,20.325
63.21,20.256
63.225,20.273
63.24,20.224
63.255,20.191
63.27,20.224
63.285,20.232
63.3,20.206
63.315,20.191
63.33,20.147
63.345,20.101
63.36,20.112
63.375,20.117
63.39,20.114
63.405,20.058
63.42,20.036
63.435,19.978
63.45,19.941
63.465,20.01
63.48,20.05
63.495,20.015
63.51,19.983
63.525,19.946
63.54,19.94
63.555,19.947
63.57,19.886
63.585,19.857
63.6,19.882
63.615,19.885
63.63,19.802
63.645,19.812
63.66,19.834
63.675,19.799
63.69,19.782
63.705,19.792
63.72,19.788
63.735,19.794
63.75,19.813
63.765,19.76
63.78,19.711
63.795,19.735
63.81,19.717
63.825,19.668
63.84,19.671
63.855,19.684
63.87,19.649
63.885,19.668
63.9,19.703
63.915,19.687
63.93,19.655
63.945,19.643
63.96,19.644
63.975,19.659
63.99,19.632
64.005,19.582
64.02,19.559
64.035,19.616
64.05,19.682
64.065,19.663
64.08,19.641
64.095,19.623
64.11,19.614
64.125,19.603
64.14,19.563
64.155,19.532
64.17,19.549
64.185,19.56
64.2,19.559
64.215,19.552
64.23,19.509
64.245,19.524
64.26,19.552
64.275,19.553
64.29,19.534
64.305,19.544
64.32,19.559
64.335,19.542
64.35,19.534
64.365,19.542
64.38,19.501
64.395,19.499
64.41,19.516
64.425,19.522
64.44,19.509
64.455,19.493
64.47,19.51
64.485,19.522
64.5,19.499
64.515,19.509
64.53,19.496
64.545,19.46
64.56,19.467
64.575,19.472
64.59,19.515
64.605,19.483
64.62,19.452
64.635,19.453
64.65,19.45
64.665,19.495
64.68,19.495
64.695,19.486
64.71,19.487
64.725,19.483
64.74,19.458
64.755,19.436
64.77,19.44
64.785,19.427
64.8,19.418
64.815,19.457
64.83,19.448
64.845,19.424
64.86,19.452
64.875,19.434
64.89,19.424
64.905,19.425
64.92,19.44
64.935,19.441
64.95,19.431
64.965,19.422
64.98,19.433
64.995,19.448
65.01,19.459
65.025,19.461
65.04,19.413
65.055,19.374
65.07,19.387
65.085,19.409
65.1,19.396
65.115,19.385
65.13,19.428
65.145,19.441
65.16,19.383
65.175,19.391
65.19,19.399
65.205,19.431
65.22,19.446
65.235,19.405
65.25,19.397
65.265,19.388
65.28,19.371
65.295,19.375
65.31,19.355
65.325,19.371
65.34,19.385
65.355,19.347
65.37,19.32
65.385,19.329
65.4,19.401
65.415,19.417
65.43,19.371
65.445,19.373
65.46,19.332
65.475,19.328
65.49,19.361
65.505,19.328
65.52,19.337
65.535,19.336
65.55,19.367
65.565,19.353
65.58,19.333
65.595,19.318
65.61,19.318
65.625,19.348
65.64,19.358
65.655,19.366
65.67,19.353
65.685,19.36
65.7,19.348
65.715,19.318
65.73,19.304
65.745,19.413
65.76,19.387
65.775,19.288
65.79,19.31
65.805,19.316
65.82,19.283
65.835,19.295
65.85,19.305
65.865,19.311
65.88,19.34
65.895,19.299
65.91,19.311
65.925,19.323
65.94,19.329
65.955,19.303
65.97,19.304
65.985,19.321
66,19.249
66.015,19.264
66.03,19.297
66.045,19.294
66.06,19.301
66.075,19.288
66.09,19.312
66.105,19.31
66.12,19.281
66.135,19.291
66.15,19.275
66.165,19.265
66.18,19.276
66.195,19.237
66.21,19.233
66.225,19.221
66.24,19.241
66.255,19.233
66.27,19.236
66.285,19.253
66.3,19.283
66.315,19.297
66.33,19.266
66.345,19.236
66.36,19.242
66.375,19.253
66.39,19.289
66.405,19.245
66.42,19.24
66.435,19.215
66.45,19.174
66.465,19.221
66.48,19.257
66.495,19.237
66.51,19.217
66.525,19.18
66.54,19.193
66.555,19.238
66.57,19.267
66.585,19.271
66.6,19.237
66.615,19.217
66.63,19.243
66.645,19.223
66.66,19.164
66.675,19.172
66.69,19.198
66.705,19.216
66.72,19.253
66.735,19.188
66.75,19.163
66.765,19.158
66.78,19.172
66.795,19.183
66.81,19.19
66.825,19.203
66.84,19.22
66.855,19.235
66.87,19.231
66.885,19.245
66.9,19.232
66.915,19.215
66.93,19.203
66.945,19.243
66.96,19.245
66.975,19.201
66.99,19.153
67.005,19.157
67.02,19.207
67.035,19.192
67.05,19.19
67.065,19.187
67.08,19.182
67.095,19.162
67.11,19.209
67.125,19.184
67.14,19.191
67.155,19.192
67.17,19.188
67.185,19.217
67.2,19.175
67.215,19.186
67.23,19.204
67.245,19.173
67.26,19.16
67.275,19.125
67.29,19.149
67.305,19.125
67.32,19.153
67.335,19.153
67.35,19.099
67.365,19.087
67.38,19.122
67.395,19.161
67.41,19.159
67.425,19.155
67.44,19.158
67.455,19.109
67.47,19.116
67.485,19.128
67.5,19.099
67.515,19.082
67.53,19.083
67.545,19.099
67.56,19.112
67.575,19.171
67.59,19.117
67.605,19.058
67.62,19.016
67.635,19.066
67.65,19.105
67.665,19.089
67.68,19.104
67.695,19.128
67.71,19.141
67.725,19.131
67.74,19.109
67.755,19.101
67.77,19.109
67.785,19.136
67.8,19.125
67.815,19.069
67.83,19.071
67.845,19.095
67.86,19.045
67.875,19.026
67.89,19.078
67.905,19.087
67.92,19.082
67.935,19.065
67.95,19.082
67.965,19.106
67.98,19.104
67.995,19.074
68.01,19.059
68.025,19.044
68.04,19.04
68.055,19.073
68.07,19.071
68.085,19.067
68.1,19.03
68.115,19.057
68.13,19.059
68.145,19.064
68.16,19.076
68.175,19.09
68.19,19.132
68.205,19.104
68.22,19.07
68.235,19.069
68.25,19.06
68.265,19.055
68.28,19.054
68.295,19.042
68.31,19.007
68.325,19.002
68.34,19.047
68.355,19.066
68.37,19.035
68.385,19.027
68.4,19.05
68.415,19.059
68.43,19.084
68.445,19.044
68.46,19.002
68.475,19.01
68.49,18.994
68.505,19.039
68.52,19.046
68.535,19.048
68.55,19.04
68.565,19.026
68.58,18.998
68.595,18.962
68.61,19.004
68.625,19.028
68.64,19.025
68.655,19.054
68.67,19.034
68.685,19.006
68.7,18.979
68.715,19.002
68.73,19.032
68.745,19.072
68.76,19.03
68.775,19.006
68.79,19.005
68.805,19.001
68.82,18.954
68.835,18.988
68.85,19.007
68.865,19.016
68.88,19.013
68.895,19.013
68.91,19.004
68.925,19.02
68.94,18.984
68.955,18.967
68.97,18.989
68.985,18.977
69,18.968
69.015,18.958
69.03,18.931
69.045,18.932
69.06,18.971
69.075,18.98
69.09,18.927
69.105,18.97
69.12,18.993
69.135,18.985
69.15,18.964
69.165,18.96
69.18,18.938
69.195,18.944
69.21,18.963
69.225,18.936
69.24,18.936
69.255,18.967
69.27,18.97
69.285,18.974
69.3,18.968
69.315,18.944
69.33,18.94
69.345,18.919
69.36,18.901
69.375,18.896
69.39,18.936
69.405,18.94
69.42,18.917
69.435,18.932
69.45,18.906
69.465,18.918
69.48,18.924
69.495,18.914
69.51,18.919
69.525,18.936
69.54,18.929
69.555,18.947
69.57,18.951
69.585,18.925
69.6,18.932
69.615,18.936
69.63,18.936
69.645,18.957
69.66,18.919
69.675,18.914
69.69,18.942
69.705,18.899
69.72,18.871
69.735,18.908
69.75,18.952
69.765,18.928
69.78,18.89
69.795,18.936
69.81,18.922
69.825,18.932
69.84,18.926
69.855,18.902
69.87,18.922
69.885,18.911
69.9,18.902
69.915,18.903
69.93,18.899
69.945,18.9
69.96,18.907
69.975,18.891
69.99,18.889
70.005,18.899
70.02,18.905
70.035,18.923
70.05,18.931
70.065,18.923
70.08,18.925
70.095,18.879
70.11,18.868
70.125,18.896
70.14,18.873
70.155,18.851
70.17,18.888
70.185,18.899
70.2,18.872
70.215,18.876
70.23,18.862
70.245,18.895
70.26,18.908
70.275,18.885
70.29,18.899
70.305,18.879
70.32,18.89
70.335,18.888
70.35,18.866
70.365,18.909
70.38,18.921
70.395,18.895
70.41,18.853
70.425,18.847
70.44,18.849
70.455,18.861
70.47,18.86
70.485,18.85
70.5,18.843
70.515,18.862
70.53,18.895
70.545,18.857
70.56,18.854
70.575,18.839
70.59,18.9
70.605,18.91
70.62,18.843
70.635,18.833
70.65,18.847
70.665,18.847
70.68,18.855
70.695,18.908
70.71,18.905
70.725,18.853
70.74,18.81
70.755,18.813
70.77,18.826
70.785,18.843
70.8,18.843
70.815,18.851
70.83,18.817
70.845,18.771
70.86,18.782
70.875,18.834
70.89,18.83
70.905,18.825
70.92,18.835
70.935,18.88
70.95,18.846
70.965,18.813
70.98,18.817
70.995,18.816
71.01,18.835
71.025,18.838
71.04,18.865
71.055,18.866
71.07,18.857
71.085,18.833
71.1,18.818
71.115,18.796
71.13,18.808
71.145,18.824
71.16,18.808
71.175,18.82
71.19,18.819
71.205,18.797
71.22,18.806
71.235,18.807
71.25,18.801
71.265,18.8
71.28,18.792
71.295,18.758
71.31,18.777
71.325,18.822
71.34,18.811
71.355,18.817
71.37,18.781
71.385,18.806
71.4,18.847
71.415,18.811
71.43,18.761
71.445,18.767
71.46,18.713
71.475,18.757
71.49,18.825
71.505,18.859
71.52,18.84
71.535,18.76
71.55,18.716
71.565,18.74
71.58,18.739
71.595,18.781
71.61,18.762
71.625,18.743
71.64,18.759
71.655,18.757
71.67,18.703
71.685,18.725
71.7,18.749
71.715,18.763
71.73,18.744
71.745,18.769
71.76,18.784
71.775,18.75
71.79,18.75
71.805,18.768
71.82,18.772
71.835,18.77
71.85,18.754
71.865,18.75
71.88,18.758
71.895,18.765
71.91,18.761
71.925,18.742
71.94,18.743
71.955,18.745
71.97,18.756
71.985,18.729
72,18.716
72.015,18.751
72.03,18.712
72.045,18.704
72.06,18.697
72.075,18.737
72.09,18.733
72.105,18.697
72.12,18.723
72.135,18.781
72.15,18.812
72.165,18.776
72.18,18.706
72.195,18.723
72.21,18.727
72.225,18.723
72.24,18.715
72.255,18.712
72.27,18.711
72.285,18.723
72.3,18.716
72.315,18.728
72.33,18.743
72.345,18.723
72.36,18.711
72.375,18.655
72.39,18.651
72.405,18.686
72.42,18.713
72.435,18.77
72.45,18.714
72.465,18.7
72.48,18.712
72.495,18.735
72.51,18.738
72.525,18.705
72.54,18.686
72.555,18.69
72.57,18.718
72.585,18.722
72.6,18.674
72.615,18.681
72.63,18.741
72.645,18.727
72.66,18.715
72.675,18.717
72.69,18.71
72.705,18.717
72.72,18.719
72.735,18.741
72.75,18.734
72.765,18.718
72.78,18.716
72.795,18.741
72.81,18.739
72.825,18.724
72.84,18.738
72.855,18.719
72.87,18.683
72.885,18.741
72.9,18.754
72.915,18.785
72.93,18.761
72.945,18.74
72.96,18.752
72.975,18.753
72.99,18.749
73.005,18.729
73.02,18.723
73.035,18.752
73.05,18.782
73.065,18.747
73.08,18.766
73.095,18.771
73.11,18.749
73.125,18.763
73.14,18.779
73.155,18.779
73.17,18.727
73.185,18.745
73.2,18.798
73.215,18.822
73.23,18.759
73.245,18.778
73.26,18.818
73.275,18.749
73.29,18.708
73.305,18.752
73.32,18.806
73.335,18.785
73.35,18.769
73.365,18.768
73.38,18.756
73.395,18.763
73.41,18.783
73.425,18.769
73.44,18.763
73.455,18.737
73.47,18.766
73.485,18.79
73.5,18.755
73.515,18.743
73.53,18.741
73.545,18.763
73.56,18.805
73.575,18.747
73.59,18.74
73.605,18.711
73.62,18.705
73.635,18.744
73.65,18.781
73.665,18.774
73.68,18.754
73.695,18.743
73.71,18.74
73.725,18.72
73.74,18.72
73.755,18.717
73.77,18.681
73.785,18.665
73.8,18.717
73.815,18.697
73.83,18.681
73.845,18.727
73.86,18.715
73.875,18.749
73.89,18.72
73.905,18.683
73.92,18.693
73.935,18.727
73.95,18.781
73.965,18.736
73.98,18.676
73.995,18.677
74.01,18.679
74.025,18.714
74.04,18.714
74.055,18.691
74.07,18.663
74.085,18.685
74.1,18.719
74.115,18.675
74.13,18.682
74.145,18.703
74.16,18.692
74.175,18.706
74.19,18.718
74.205,18.708
74.22,18.686
74.235,18.653
74.25,18.651
74.265,18.659
74.28,18.724
74.295,18.736
74.31,18.72
74.325,18.714
74.34,18.717
74.355,18.713
74.37,18.718
74.385,18.682
74.4,18.665
74.415,18.666
74.43,18.649
74.445,18.7
74.46,18.691
74.475,18.699
74.49,18.705
74.505,18.685
74.52,18.663
74.535,18.659
74.55,18.675
74.565,18.624
74.58,18.645
74.595,18.699
74.61,18.714
74.625,18.634
74.64,18.616
74.655,18.656
74.67,18.645
74.685,18.673
74.7,18.646
74.715,18.663
74.73,18.623
74.745,18.59
74.76,18.605
74.775,18.625
74.79,18.628
74.805,18.588
74.82,18.588
74.835,18.607
74.85,18.608
74.865,18.6
74.88,18.62
74.895,18.606
74.91,18.565
74.925,18.569
74.94,18.563
74.955,18.551
74.97,18.595
74.985,18.601
75,18.479
75.015,18.365
75.03,18.238
75.045,18.217
75.06,18.201
75.075,18.145
75.09,18.025
75.105,17.934
75.12,17.892
75.135,17.917
75.15,17.893
75.165,17.855
75.18,17.856
75.195,17.79
75.21,17.655
75.225,17.628
75.24,17.594
75.255,17.512
75.27,17.457
75.285,17.447
75.3,17.465
75.315,17.273
75.33,17.272
75.345,15.765
