24.99,0
25.005,-0.077
25.02,-0.077
25.035,-0.081
25.05,0.072
25.065,0.082
25.08,0.041
25.095,0.061
25.11,0.064
25.125,0.081
25.14,0.062
25.155,-0.059
25.17,-0.077
25.185,-0.047
25.2,0.094
25.215,0.106
25.23,0.075
25.245,0.118
25.26,0.102
25.275,0.065
25.29,0.056
25.305,0.027
25.32,0.073
25.335,0.108
25.35,0.049
25.365,0.015
25.38,0.033
25.395,0.032
25.41,0.013
25.425,0.03
25.44,0.018
25.455,0.001
25.47,0.086
25.485,0.049
25.5,-0.035
25.515,-0.049
25.53,-0.009
25.545,-0.057
25.56,-0.03
25.575,0.023
25.59,0.029
25.605,-0.043
25.62,-0.02
25.635,0.067
25.65,0
25.665,-0.076
25.68,-0.035
25.695,-0.002
25.71,0.005
25.725,-0.012
25.74,0.026
25.755,-0.015
25.77,-0.012
25.785,-0.007
25.8,-0.025
25.815,0.009
25.83,0.047
25.845,0.06
25.86,0.042
25.875,0.018
25.89,0.052
25.905,0.059
25.92,0.02
25.935,0.006
25.95,-0.015
25.965,0.012
25.98,0.05
25.995,0.05
26.01,0.093
26.025,0.054
26.04,-0.001
26.055,0.022
26.07,-0.003
26.085,-0.077
26.1,-0.067
26.115,-0.038
26.13,-0.038
26.145,-0.037
26.16,0.01
26.175,0.014
26.19,0.011
26.205,-0.015
26.22,-0.038
26.235,-0.034
26.25,0.006
26.265,0.047
26.28,0.031
26.295,0.027
26.31,0.054
26.325,-0.001
26.34,-0.018
26.355,-0.009
26.37,0
26.385,0.011
26.4,-0.021
26.415,-0.008
26.43,-0.038
26.445,-0.02
26.46,-0.024
26.475,-0.041
26.49,-0.013
26.505,-0.004
26.52,-0.022
26.535,-0.029
26.55,-0.016
26.565,0.033
26.58,0.053
26.595,0.03
26.61,0.013
26.625,0.004
26.64,-0.035
26.655,-0.04
26.67,-0.036
26.685,-0.019
26.7,0.001
26.715,0.017
26.73,0.068
26.745,0.035
26.76,-0.055
26.775,-0.076
26.79,-0.006
26.805,0.011
26.82,0.026
26.835,0.005
26.85,0.036
26.865,0.027
26.88,-0.005
26.895,-0.005
26.91,0.001
26.925,0.038
26.94,0.008
26.955,-0.02
26.97,0.017
26.985,-0.029
27,0.018
27.015,-0.001
27.03,-0.067
27.045,-0.05
27.06,-0.015
27.075,0.005
27.09,0.034
27.105,0.068
27.12,0.005
27.135,-0.027
27.15,0.019
27.165,-0.011
27.18,-0.023
27.195,-0.039
27.21,-0.009
27.225,0
27.24,-0.028
27.255,-0.042
27.27,-0.076
27.285,-0.039
27.3,0.017
27.315,-0.029
27.33,-0.022
27.345,0.023
27.36,-0.022
27.375,-0.047
27.39,-0.064
27.405,-0.017
27.42,-0.033
27.435,-0.01
27.45,-0.045
27.465,-0.055
27.48,-0.018
27.495,-0.076
27.51,-0.071
27.525,-0.02
27.54,-0.018
27.555,0.005
27.57,-0.026
27.585,-0.068
27.6,-0.055
27.615,-0.041
27.63,-0.025
27.645,-0.047
27.66,-0.054
27.675,-0.027
27.69,-0.076
27.705,-0.042
27.72,-0.029
27.735,-0.064
27.75,-0.075
27.765,-0.062
27.78,-0.076
27.795,-0.035
27.81,-0.011
27.825,-0.04
27.84,-0.065
27.855,-0.045
27.87,0.009
27.885,-0.001
27.9,-0.035
27.915,-0.013
27.93,-0.076
27.945,-0.048
27.96,0.006
27.975,-0.021
27.99,-0.029
28.005,-0.002
28.02,0.02
28.035,0.001
28.05,-0.011
28.065,-0.002
28.08,-0.036
28.095,-0.043
28.11,-0.018
28.125,-0.005
28.14,-0.04
28.155,-0.034
28.17,-0.005
28.185,0.008
28.2,-0.022
28.215,-0.05
28.23,-0.043
28.245,-0.061
28.26,-0.029
28.275,-0.034
28.29,-0.054
28.305,-0.067
28.32,-0.033
28.335,-0.057
28.35,-0.031
28.365,0.009
28.38,-0.032
28.395,-0.034
28.41,-0.044
28.425,-0.03
28.44,-0.048
28.455,-0.009
28.47,-0.004
28.485,-0.062
28.5,-0.073
28.515,-0.045
28.53,0.002
28.545,-0.038
28.56,-0.066
28.575,-0.001
28.59,-0.006
28.605,-0.016
28.62,-0.027
28.635,0.015
28.65,-0.012
28.665,0.01
28.68,0.013
28.695,-0.007
28.71,-0.022
28.725,-0.069
28.74,-0.019
28.755,0.009
28.77,-0.042
28.785,-0.033
28.8,-0.076
28.815,-0.054
28.83,-0.015
28.845,0.031
28.86,0.015
28.875,0.005
28.89,0.03
28.905,-0.001
28.92,-0.019
28.935,0.003
28.95,-0.046
28.965,-0.039
28.98,-0.027
28.995,-0.011
29.01,-0.028
29.025,-0.042
29.04,0.005
29.055,0
29.07,0.018
29.085,0.011
29.1,0.016
29.115,0.028
29.13,0.02
29.145,0.024
29.16,0.059
29.175,0.063
29.19,0.06
29.205,0.073
29.22,0.075
29.235,0.051
29.25,0.048
29.265,0.088
29.28,0.113
29.295,0.105
29.31,0.099
29.325,0.132
29.34,0.105
29.355,0.107
29.37,0.07
29.385,0.077
29.4,0.097
29.415,0.113
29.43,0.16
29.445,0.146
29.46,0.109
29.475,0.097
29.49,0.147
29.505,0.184
29.52,0.184
29.535,0.198
29.55,0.149
29.565,0.135
29.58,0.131
29.595,0.168
29.61,0.171
29.625,0.188
29.64,0.166
29.655,0.207
29.67,0.189
29.685,0.191
29.7,0.188
29.715,0.25
29.73,0.253
29.745,0.235
29.76,0.268
29.775,0.286
29.79,0.282
29.805,0.281
29.82,0.295
29.835,0.287
29.85,0.301
29.865,0.269
29.88,0.302
29.895,0.33
29.91,0.293
29.925,0.288
29.94,0.299
29.955,0.347
29.97,0.339
29.985,0.308
30,0.326
30.015,0.281
30.03,0.35
30.045,0.365
30.06,0.34
30.075,0.35
30.09,0.361
30.105,0.303
30.12,0.296
30.135,0.278
30.15,0.305
30.165,0.343
30.18,0.333
30.195,0.308
30.21,0.275
30.225,0.324
30.24,0.314
30.255,0.288
30.27,0.333
30.285,0.311
30.3,0.325
30.315,0.334
30.33,0.289
30.345,0.28
30.36,0.293
30.375,0.341
30.39,0.334
30.405,0.282
30.42,0.301
30.435,0.262
30.45,0.237
30.465,0.285
30.48,0.293
30.495,0.295
30.51,0.304
30.525,0.237
30.54,0.278
30.555,0.31
30.57,0.261
30.585,0.245
30.6,0.225
30.615,0.285
30.63,0.29
30.645,0.206
30.66,0.207
30.675,0.256
30.69,0.152
30.705,0.123
30.72,0.151
30.735,0.151
30.75,0.135
30.765,0.149
30.78,0.16
30.795,0.166
30.81,0.181
30.825,0.114
30.84,0.095
30.855,0.102
30.87,0.124
30.885,0.133
30.9,0.122
30.915,0.096
30.93,0.076
30.945,0.028
30.96,0.046
30.975,0.076
30.99,0.092
31.005,0.059
31.02,0.045
31.035,0.051
31.05,0.048
31.065,0.041
31.08,0.05
31.095,0.037
31.11,0.008
31.125,-0.023
31.14,-0.019
31.155,-0.021
31.17,0.003
31.185,0
31.2,0.027
31.215,0.041
31.23,0.014
31.245,0.027
31.26,-0.004
31.275,-0.017
31.29,-0.016
31.305,-0.014
31.32,-0.008
31.335,-0.043
31.35,-0.063
31.365,-0.033
31.38,-0.032
31.395,-0.046
31.41,-0.059
31.425,-0.056
31.44,-0.073
31.455,-0.054
31.47,-0.004
31.485,-0.014
31.5,0
31.515,0.023
31.53,-0.035
31.545,-0.042
31.56,-0.041
31.575,-0.055
31.59,-0.044
31.605,-0.064
31.62,-0.07
31.635,-0.058
31.65,-0.031
31.665,-0.043
31.68,-0.076
31.695,-0.045
31.71,-0.032
31.725,-0.043
31.74,-0.045
31.755,-0.05
31.77,-0.066
31.785,-0.031
31.8,0.013
31.815,0.013
31.83,-0.042
31.845,-0.057
31.86,0.04
31.875,0.025
31.89,0.003
31.905,-0.038
31.92,-0.044
31.935,-0.039
31.95,-0.066
31.965,-0.012
31.98,-0.005
31.995,-0.05
32.01,-0.076
32.025,-0.07
32.04,-0.058
32.055,-0.045
32.07,-0.033
32.085,-0.045
32.1,-0.049
32.115,-0.048
32.13,-0.034
32.145,-0.008
32.16,-0.038
32.175,-0.027
32.19,-0.041
32.205,-0.059
32.22,-0.036
32.235,-0.041
32.25,-0.001
32.265,-0.024
32.28,-0.008
32.295,-0.022
32.31,-0.016
32.325,-0.006
32.34,-0.009
32.355,-0.01
32.37,-0.037
32.385,-0.025
32.4,-0.025
32.415,-0.051
32.43,-0.064
32.445,-0.048
32.46,-0.022
32.475,-0.035
32.49,-0.06
32.505,-0.052
32.52,-0.05
32.535,-0.018
32.55,-0.004
32.565,0.046
32.58,0.054
32.595,0.027
32.61,0.038
32.625,-0.02
32.64,-0.076
32.655,-0.002
32.67,0.042
32.685,0.041
32.7,0.089
32.715,0.09
32.73,0.043
32.745,-0.017
32.76,-0.029
32.775,0.015
32.79,0.016
32.805,-0.003
32.82,0.008
32.835,0.03
32.85,0
32.865,-0.009
32.88,-0.034
32.895,0.02
32.91,0.005
32.925,-0.02
32.94,0.021
32.955,0.013
32.97,-0.032
32.985,-0.026
33,0.002
33.015,0.009
33.03,-0.015
33.045,-0.038
33.06,-0.03
33.075,0.003
33.09,0.02
33.105,0.045
33.12,-0.073
33.135,-0.076
33.15,-0.026
33.165,-0.031
33.18,-0.021
33.195,0.004
33.21,-0.026
33.225,0.014
33.24,0.033
33.255,-0.005
33.27,0.018
33.285,0.016
33.3,-0.043
33.315,-0.062
33.33,-0.036
33.345,-0.039
33.36,-0.027
33.375,-0.037
33.39,-0.015
33.405,-0.002
33.42,-0.01
33.435,0.018
33.45,0.008
33.465,0.004
33.48,-0.002
33.495,-0.016
33.51,0.03
33.525,0.043
33.54,0.054
33.555,0.002
33.57,0.029
33.585,0.033
33.6,0.003
33.615,0.004
33.63,0.024
33.645,0.034
33.66,0.034
33.675,0.041
33.69,0.044
33.705,0.051
33.72,0.046
33.735,0.062
33.75,0.065
33.765,0.09
33.78,0.08
33.795,0.124
33.81,0.095
33.825,0.081
33.84,0.11
33.855,0.088
33.87,0.146
33.885,0.209
33.9,0.214
33.915,0.146
33.93,0.104
33.945,0.131
33.96,0.125
33.975,0.167
33.99,0.177
34.005,0.171
34.02,0.23
34.035,0.225
34.05,0.235
34.065,0.234
34.08,0.245
34.095,0.27
34.11,0.284
34.125,0.287
34.14,0.278
34.155,0.291
34.17,0.317
34.185,0.35
34.2,0.356
34.215,0.337
34.23,0.313
34.245,0.357
34.26,0.406
34.275,0.434
34.29,0.469
34.305,0.521
34.32,0.536
34.335,0.563
34.35,0.602
34.365,0.583
34.38,0.567
34.395,0.577
34.41,0.639
34.425,0.668
34.44,0.646
34.455,0.653
34.47,0.707
34.485,0.738
34.5,0.707
34.515,0.729
34.53,0.809
34.545,0.841
34.56,0.895
34.575,0.922
34.59,0.958
34.605,1.016
34.62,1.042
34.635,1.002
34.65,1.038
34.665,1.092
34.68,1.088
34.695,1.149
34.71,1.226
34.725,1.227
34.74,1.278
34.755,1.3
34.77,1.321
34.785,1.305
34.8,1.334
34.815,1.42
34.83,1.385
34.845,1.354
34.86,1.422
34.875,1.498
34.89,1.548
34.905,1.583
34.92,1.579
34.935,1.544
34.95,1.548
34.965,1.613
34.98,1.667
34.995,1.692
35.01,1.689
35.025,1.758
35.04,1.76
35.055,1.79
35.07,1.798
35.085,1.835
35.1,1.908
35.115,1.938
35.13,1.945
35.145,1.943
35.16,1.923
35.175,1.977
35.19,1.972
35.205,2.003
35.22,2.034
35.235,2.055
35.25,1.998
35.265,2.014
35.28,2.057
35.295,2.093
35.31,2.13
35.325,2.115
35.34,2.083
35.355,2.113
35.37,2.132
35.385,2.112
35.4,2.056
35.415,2.075
35.43,2.084
35.445,2.114
35.46,2.11
35.475,2.105
35.49,2.099
35.505,2.077
35.52,2.088
35.535,2.071
35.55,2.039
35.565,1.997
35.58,2.004
35.595,1.992
35.61,1.988
35.625,1.985
35.64,1.979
35.655,1.978
35.67,1.955
35.685,1.902
35.7,1.841
35.715,1.875
35.73,1.879
35.745,1.864
35.76,1.847
35.775,1.81
35.79,1.825
35.805,1.746
35.82,1.723
35.835,1.691
35.85,1.653
35.865,1.604
35.88,1.664
35.895,1.663
35.91,1.538
35.925,1.487
35.94,1.557
35.955,1.563
35.97,1.527
35.985,1.474
36,1.436
36.015,1.419
36.03,1.362
36.045,1.304
36.06,1.265
36.075,1.273
36.09,1.281
36.105,1.241
36.12,1.256
36.135,1.25
36.15,1.222
36.165,1.157
36.18,1.125
36.195,1.098
36.21,1.113
36.225,1.128
36.24,1.08
36.255,1.054
36.27,1.012
36.285,1.006
36.3,0.977
36.315,0.977
36.33,0.974
36.345,0.952
36.36,0.952
36.375,0.962
36.39,0.942
36.405,0.933
36.42,0.911
36.435,0.897
36.45,0.906
36.465,0.921
36.48,0.916
36.495,0.936
36.51,0.954
36.525,0.94
36.54,0.908
36.555,0.925
36.57,0.967
36.585,0.96
36.6,0.987
36.615,0.953
36.63,0.941
36.645,0.937
36.66,0.939
36.675,0.926
36.69,0.998
36.705,1.07
36.72,1.042
36.735,0.981
36.75,1.008
36.765,1.018
36.78,0.973
36.795,0.97
36.81,0.975
36.825,0.957
36.84,0.971
36.855,0.934
36.87,0.935
36.885,0.967
36.9,0.925
36.915,0.887
36.93,0.899
36.945,0.951
36.96,0.87
36.975,0.838
36.99,0.818
37.005,0.757
37.02,0.76
37.035,0.766
37.05,0.708
37.065,0.63
37.08,0.62
37.095,0.614
37.11,0.599
37.125,0.533
37.14,0.527
37.155,0.477
37.17,0.382
37.185,0.373
37.2,0.416
37.215,0.373
37.23,0.334
37.245,0.327
37.26,0.284
37.275,0.232
37.29,0.218
37.305,0.192
37.32,0.114
37.335,0.146
37.35,0.134
37.365,0.139
37.38,0.12
37.395,0.083
37.41,0.059
37.425,0.062
37.44,0.054
37.455,0.015
37.47,0.022
37.485,0.091
37.5,0.06
37.515,0.049
37.53,0.12
37.545,0.087
37.56,0.035
37.575,0.032
37.59,0.045
37.605,-0.013
37.62,-0.075
37.635,-0.009
37.65,0.029
37.665,-0.014
37.68,-0.005
37.695,0.028
37.71,-0.002
37.725,-0.017
37.74,-0.024
37.755,-0.009
37.77,0.009
37.785,0.017
37.8,-0.024
37.815,0.014
37.83,0.029
37.845,0.001
37.86,0.004
37.875,-0.019
37.89,-0.018
37.905,-0.067
37.92,-0.053
37.935,-0.042
37.95,0.006
37.965,-0.048
37.98,-0.045
37.995,-0.021
38.01,-0.035
38.025,-0.044
38.04,-0.053
38.055,-0.075
38.07,-0.057
38.085,-0.026
38.1,-0.011
38.115,-0.014
38.13,-0.028
38.145,-0.036
38.16,-0.017
38.175,0.043
38.19,0.012
38.205,0.005
38.22,-0.007
38.235,-0.056
38.25,-0.075
38.265,-0.025
38.28,-0.019
38.295,-0.03
38.31,-0.034
38.325,-0.055
38.34,-0.058
38.355,-0.046
38.37,-0.017
38.385,0.028
38.4,0.045
38.415,0.019
38.43,-0.032
38.445,-0.025
38.46,0.034
38.475,-0.006
38.49,-0.009
38.505,0.005
38.52,0.025
38.535,-0.009
38.55,-0.01
38.565,-0.019
38.58,0.033
38.595,0.027
38.61,-0.044
38.625,-0.015
38.64,0.021
38.655,0.01
38.67,0.017
38.685,-0.005
38.7,-0.013
38.715,0.007
38.73,-0.019
38.745,-0.009
38.76,0.009
38.775,-0.03
38.79,-0.023
38.805,0.032
38.82,0.049
38.835,0.023
38.85,0
38.865,-0.028
38.88,-0.011
38.895,0.015
38.91,0.061
38.925,0.012
38.94,-0.009
38.955,0.024
38.97,0.038
38.985,-0.008
39,0.002
39.015,0.018
39.03,0.01
39.045,-0.013
39.06,0.023
39.075,0.034
39.09,0.029
39.105,0.036
39.12,0.055
39.135,0.053
39.15,-0.001
39.165,0.01
39.18,0.064
39.195,0.079
39.21,0.044
39.225,0.007
39.24,-0.038
39.255,-0.074
39.27,-0.021
39.285,0.055
39.3,0.043
39.315,0.006
39.33,0.051
39.345,0.034
39.36,0.056
39.375,0.044
39.39,0.019
39.405,0.031
39.42,0.035
39.435,-0.021
39.45,0.001
39.465,0.021
39.48,-0.033
39.495,-0.028
39.51,0.013
39.525,0.008
39.54,0.008
39.555,-0.026
39.57,-0.073
39.585,-0.025
39.6,0.003
39.615,0.008
39.63,0.017
39.645,0.005
39.66,-0.003
39.675,-0.004
39.69,-0.01
39.705,0.023
39.72,-0.02
39.735,-0.042
39.75,-0.01
39.765,-0.01
39.78,-0.045
39.795,-0.049
39.81,-0.049
39.825,0.004
39.84,0.01
39.855,0.022
39.87,-0.026
39.885,-0.044
39.9,-0.045
39.915,-0.057
39.93,-0.014
39.945,0.014
39.96,0.021
39.975,-0.029
39.99,-0.063
40.005,-0.044
40.02,-0.074
40.035,-0.011
40.05,0.046
40.065,0.024
40.08,-0.029
40.095,-0.063
40.11,-0.019
40.125,-0.038
40.14,0
40.155,-0.004
40.17,-0.074
40.185,-0.071
40.2,-0.03
40.215,-0.022
40.23,-0.041
40.245,0.003
40.26,-0.035
40.275,-0.049
40.29,-0.032
40.305,-0.06
40.32,-0.041
40.335,-0.024
40.35,-0.043
40.365,-0.019
40.38,-0.012
40.395,0.003
40.41,0.061
40.425,-0.007
40.44,-0.067
40.455,-0.015
40.47,-0.017
40.485,-0.029
40.5,-0.021
40.515,0.001
40.53,-0.006
40.545,-0.046
40.56,-0.024
40.575,0.013
40.59,-0.009
40.605,-0.049
40.62,-0.066
40.635,-0.054
40.65,-0.051
40.665,-0.054
40.68,-0.046
40.695,-0.044
40.71,-0.056
40.725,-0.07
40.74,-0.069
40.755,-0.033
40.77,-0.01
40.785,-0.003
40.8,-0.065
40.815,-0.074
40.83,-0.012
40.845,-0.02
40.86,-0.058
40.875,-0.034
40.89,-0.003
40.905,-0.013
40.92,0.002
40.935,-0.009
40.95,-0.024
40.965,-0.006
40.98,-0.015
40.995,-0.042
41.01,-0.052
41.025,-0.074
41.04,-0.048
41.055,-0.046
41.07,-0.003
41.085,0.004
41.1,-0.033
41.115,-0.057
41.13,-0.049
41.145,-0.042
41.16,-0.028
41.175,-0.067
41.19,-0.051
41.205,-0.046
41.22,-0.016
41.235,0.021
41.25,-0.005
41.265,-0.047
41.28,-0.074
41.295,-0.074
41.31,-0.028
41.325,-0.008
41.34,-0.014
41.355,-0.027
41.37,-0.025
41.385,-0.02
41.4,0.039
41.415,0.043
41.43,0.022
41.445,0.03
41.46,0.009
41.475,-0.003
41.49,0.003
41.505,-0.023
41.52,0.002
41.535,0.065
41.55,0.077
41.565,0.042
41.58,0.055
41.595,0.064
41.61,0.106
41.625,0.112
41.64,0.154
41.655,0.169
41.67,0.13
41.685,0.15
41.7,0.123
41.715,0.159
41.73,0.211
41.745,0.217
41.76,0.258
41.775,0.261
41.79,0.187
41.805,0.214
41.82,0.243
41.835,0.263
41.85,0.297
41.865,0.274
41.88,0.255
41.895,0.302
41.91,0.309
41.925,0.339
41.94,0.324
41.955,0.334
41.97,0.322
41.985,0.308
42,0.371
42.015,0.392
42.03,0.417
42.045,0.388
42.06,0.362
42.075,0.345
42.09,0.327
42.105,0.368
42.12,0.371
42.135,0.382
42.15,0.356
42.165,0.333
42.18,0.346
42.195,0.373
42.21,0.354
42.225,0.347
42.24,0.36
42.255,0.387
42.27,0.403
42.285,0.404
42.3,0.396
42.315,0.412
42.33,0.478
42.345,0.513
42.36,0.479
42.375,0.484
42.39,0.523
42.405,0.601
42.42,0.567
42.435,0.57
42.45,0.685
42.465,0.722
42.48,0.745
42.495,0.821
42.51,0.868
42.525,0.87
42.54,0.934
42.555,0.976
42.57,1.048
42.585,1.107
42.6,1.168
42.615,1.177
42.63,1.245
42.645,1.324
42.66,1.376
42.675,1.409
42.69,1.518
42.705,1.574
42.72,1.622
42.735,1.69
42.75,1.72
42.765,1.759
42.78,1.783
42.795,1.846
42.81,1.877
42.825,1.879
42.84,1.939
42.855,2.001
42.87,1.986
42.885,1.993
42.9,1.991
42.915,1.962
42.93,1.943
42.945,1.946
42.96,1.942
42.975,1.882
42.99,1.882
43.005,1.826
43.02,1.741
43.035,1.725
43.05,1.687
43.065,1.618
43.08,1.573
43.095,1.505
43.11,1.459
43.125,1.368
43.14,1.314
43.155,1.26
43.17,1.255
43.185,1.146
43.2,1.028
43.215,0.986
43.23,0.961
43.245,0.866
43.26,0.757
43.275,0.757
43.29,0.701
43.305,0.641
43.32,0.603
43.335,0.567
43.35,0.558
43.365,0.531
43.38,0.461
43.395,0.373
43.41,0.389
43.425,0.369
43.44,0.345
43.455,0.319
43.47,0.335
43.485,0.291
43.5,0.261
43.515,0.24
43.53,0.283
43.545,0.274
43.56,0.21
43.575,0.242
43.59,0.27
43.605,0.257
43.62,0.211
43.635,0.245
43.65,0.241
43.665,0.236
43.68,0.282
43.695,0.268
43.71,0.254
43.725,0.254
43.74,0.207
43.755,0.146
43.77,0.136
43.785,0.14
43.8,0.138
43.815,0.148
43.83,0.155
43.845,0.122
43.86,0.101
43.875,0.111
43.89,0.127
43.905,0.141
43.92,0.085
43.935,0.043
43.95,0.075
43.965,0.091
43.98,0.055
43.995,0.062
44.01,-0.008
44.025,-0.028
44.04,-0.011
44.055,-0.016
44.07,-0.025
44.085,-0.016
44.1,-0.016
44.115,-0.015
44.13,-0.039
44.145,-0.017
44.16,-0.02
44.175,-0.074
44.19,-0.032
44.205,-0.007
44.22,0.004
44.235,0.001
44.25,0.004
44.265,-0.007
44.28,-0.004
44.295,-0.016
44.31,0.009
44.325,0.007
44.34,-0.018
44.355,0.005
44.37,-0.026
44.385,-0.02
44.4,0.027
44.415,0.051
44.43,-0.006
44.445,-0.022
44.46,0.018
44.475,-0.026
44.49,-0.024
44.505,-0.043
44.52,-0.059
44.535,-0.027
44.55,-0.074
44.565,-0.037
44.58,-0.014
44.595,-0.018
44.61,-0.044
44.625,-0.026
44.64,-0.026
44.655,-0.018
44.67,-0.067
44.685,-0.036
44.7,0.004
44.715,-0.028
44.73,0.009
44.745,0.028
44.76,-0.007
44.775,-0.033
44.79,-0.005
44.805,0.04
44.82,-0.008
44.835,-0.041
44.85,-0.025
44.865,-0.044
44.88,-0.038
44.895,-0.02
44.91,-0.023
44.925,-0.007
44.94,-0.013
44.955,-0.031
44.97,-0.034
44.985,-0.038
45,0.016
45.015,0.004
45.03,-0.06
45.045,-0.069
45.06,-0.074
45.075,-0.043
45.09,0.001
45.105,-0.048
45.12,-0.05
45.135,0
45.15,0.012
45.165,-0.006
45.18,0.007
45.195,0.006
45.21,0.007
45.225,-0.025
45.24,-0.004
45.255,0.018
45.27,0.024
45.285,0.003
45.3,-0.016
45.315,-0.034
45.33,0.005
45.345,0.021
45.36,-0.011
45.375,-0.023
45.39,-0.004
45.405,-0.029
45.42,-0.035
45.435,-0.015
45.45,0.012
45.465,0.015
45.48,0.026
45.495,-0.018
45.51,0.004
45.525,0.023
45.54,-0.011
45.555,-0.034
45.57,-0.012
45.585,-0.051
45.6,-0.074
45.615,-0.068
45.63,-0.01
45.645,-0.024
45.66,-0.042
45.675,-0.052
45.69,-0.023
45.705,-0.06
45.72,-0.064
45.735,-0.014
45.75,0.003
45.765,-0.044
45.78,-0.02
45.795,0.012
45.81,0.008
45.825,-0.023
45.84,-0.063
45.855,-0.054
45.87,-0.029
45.885,-0.057
45.9,-0.038
45.915,-0.012
45.93,0.02
45.945,0.002
45.96,-0.058
45.975,-0.044
45.99,-0.028
46.005,-0.009
46.02,-0.03
46.035,-0.02
46.05,-0.005
46.065,-0.028
46.08,-0.051
46.095,-0.042
46.11,-0.035
46.125,-0.06
46.14,-0.057
46.155,-0.032
46.17,-0.027
46.185,-0.004
46.2,0.006
46.215,-0.024
46.23,-0.057
46.245,-0.039
46.26,0
46.275,0.014
46.29,-0.033
46.305,-0.072
46.32,-0.046
46.335,-0.003
46.35,0.011
46.365,-0.015
46.38,-0.062
46.395,-0.044
46.41,-0.055
46.425,-0.073
46.44,-0.066
46.455,-0.047
46.47,-0.056
46.485,-0.07
46.5,-0.034
46.515,-0.022
46.53,-0.027
46.545,-0.01
46.56,-0.011
46.575,-0.018
46.59,0.014
46.605,0.007
46.62,-0.035
46.635,-0.068
46.65,-0.019
46.665,0.022
46.68,-0.048
46.695,-0.055
46.71,-0.016
46.725,-0.073
46.74,-0.033
46.755,0.008
46.77,0.034
46.785,-0.005
46.8,-0.021
46.815,0.017
46.83,-0.006
46.845,-0.006
46.86,-0.007
46.875,-0.058
46.89,-0.061
46.905,-0.018
46.92,-0.031
46.935,-0.037
46.95,-0.016
46.965,0.029
46.98,0.015
46.995,0.002
47.01,-0.027
47.025,-0.018
47.04,-0.028
47.055,-0.073
47.07,-0.014
47.085,-0.034
47.1,-0.037
47.115,0.017
47.13,0.041
47.145,0.008
47.16,-0.019
47.175,0.019
47.19,0.011
47.205,0.031
47.22,0.042
47.235,0.013
47.25,-0.023
47.265,-0.001
47.28,0.013
47.295,-0.026
47.31,-0.058
47.325,-0.073
47.34,-0.015
47.355,0.019
47.37,0.028
47.385,-0.03
47.4,-0.065
47.415,-0.026
47.43,-0.015
47.445,-0.017
47.46,-0.055
47.475,-0.017
47.49,0.006
47.505,-0.033
47.52,-0.009
47.535,-0.004
47.55,-0.027
47.565,-0.005
47.58,0.014
47.595,-0.006
47.61,-0.049
47.625,-0.039
47.64,-0.036
47.655,-0.023
47.67,-0.031
47.685,-0.015
47.7,0.006
47.715,0.013
47.73,-0.015
47.745,0.003
47.76,0.001
47.775,0.002
47.79,-0.008
47.805,0.027
47.82,0.018
47.835,-0.022
47.85,-0.023
47.865,0.004
47.88,-0.005
47.895,-0.012
47.91,-0.039
47.925,-0.056
47.94,-0.049
47.955,-0.024
47.97,0.012
47.985,0.015
48,-0.048
48.015,-0.062
48.03,-0.032
48.045,-0.068
48.06,-0.05
48.075,0.022
48.09,-0.013
48.105,-0.025
48.12,-0.03
48.135,-0.008
48.15,-0.021
48.165,-0.01
48.18,-0.003
48.195,-0.019
48.21,0.047
48.225,0.018
48.24,-0.073
48.255,-0.052
48.27,0.013
48.285,-0.009
48.3,-0.047
48.315,-0.043
48.33,0
48.345,0.011
48.36,0.017
48.375,-0.03
48.39,0.006
48.405,-0.012
48.42,-0.051
48.435,0.012
48.45,-0.003
48.465,-0.073
48.48,-0.045
48.495,-0.045
48.51,-0.047
48.525,-0.03
48.54,-0.007
48.555,-0.018
48.57,-0.005
48.585,-0.004
48.6,0.013
48.615,-0.01
48.63,-0.058
48.645,-0.031
48.66,0.015
48.675,0.043
48.69,0.029
48.705,0.023
48.72,0.001
48.735,-0.007
48.75,-0.02
48.765,-0.056
48.78,-0.049
48.795,-0.042
48.81,-0.022
48.825,-0.035
48.84,0.013
48.855,0.005
48.87,-0.048
48.885,-0.063
48.9,-0.034
48.915,-0.009
48.93,-0.026
48.945,-0.025
48.96,-0.019
48.975,-0.039
48.99,-0.066
49.005,-0.05
49.02,-0.045
49.035,-0.035
49.05,-0.037
49.065,-0.049
49.08,-0.035
49.095,-0.034
49.11,0.001
49.125,-0.015
49.14,-0.033
49.155,-0.04
49.17,-0.015
49.185,-0.045
49.2,-0.029
49.215,-0.005
49.23,-0.047
49.245,-0.05
49.26,-0.027
49.275,0.013
49.29,-0.035
49.305,-0.039
49.32,-0.02
49.335,-0.053
49.35,-0.043
49.365,-0.035
49.38,0.039
49.395,0.006
49.41,-0.073
49.425,-0.023
49.44,0.008
49.455,0.01
49.47,0.001
49.485,-0.026
49.5,0.024
49.515,0.05
49.53,0.047
49.545,0.051
49.56,0.054
49.575,0.032
49.59,0.003
49.605,-0.025
49.62,-0.037
49.635,-0.047
49.65,-0.006
49.665,0.038
49.68,-0.014
49.695,-0.003
49.71,0.014
49.725,-0.028
49.74,-0.035
49.755,-0.017
49.77,0.008
49.785,0.05
49.8,-0.01
49.815,-0.049
49.83,-0.036
49.845,-0.016
49.86,-0.013
49.875,-0.015
49.89,-0.044
49.905,-0.006
49.92,0.023
49.935,0.001
49.95,-0.037
49.965,-0.042
49.98,-0.021
49.995,0.003
50.01,-0.017
50.025,-0.04
50.04,0.013
50.055,0.005
50.07,-0.006
50.085,-0.005
50.1,-0.01
50.115,0.002
50.13,-0.029
50.145,-0.026
50.16,-0.01
50.175,-0.016
50.19,0.006
50.205,-0.023
50.22,-0.035
50.235,-0.014
50.25,-0.025
50.265,0.017
50.28,0.02
50.295,-0.018
50.31,-0.016
50.325,-0.032
50.34,-0.029
50.355,-0.035
50.37,-0.021
50.385,0.029
50.4,0.011
50.415,-0.041
50.43,0.002
50.445,0.035
50.46,0.024
50.475,0.02
50.49,0.031
50.505,0.061
50.52,-0.006
50.535,0.013
50.55,-0.015
50.565,0.016
50.58,0.018
50.595,0.039
50.61,0.023
50.625,0.039
50.64,0.019
50.655,0.023
50.67,-0.032
50.685,-0.073
50.7,-0.024
50.715,0.018
50.73,0.006
50.745,0.025
50.76,0.002
50.775,-0.045
50.79,-0.064
50.805,0.015
50.82,0.022
50.835,0.025
50.85,0.006
50.865,-0.037
50.88,0.001
50.895,0.04
50.91,0.025
50.925,0.025
50.94,-0.013
50.955,0
50.97,0.009
50.985,-0.04
51,-0.038
51.015,0.001
51.03,-0.04
51.045,-0.057
51.06,-0.058
51.075,-0.046
51.09,-0.005
51.105,-0.015
51.12,-0.05
51.135,-0.054
51.15,-0.064
51.165,-0.019
51.18,0.035
51.195,0.031
51.21,0.016
51.225,-0.017
51.24,-0.008
51.255,0.015
51.27,-0.006
51.285,-0.047
51.3,-0.035
51.315,-0.035
51.33,0
51.345,-0.026
51.36,-0.069
51.375,-0.073
51.39,-0.049
51.405,-0.017
51.42,-0.064
51.435,-0.048
51.45,-0.048
51.465,-0.036
51.48,0.011
51.495,0.004
51.51,-0.023
51.525,-0.023
51.54,0.035
51.555,-0.007
51.57,-0.007
51.585,-0.016
51.6,-0.044
51.615,-0.005
51.63,-0.037
51.645,-0.048
51.66,0.006
51.675,0
51.69,-0.037
51.705,-0.012
51.72,-0.002
51.735,-0.044
51.75,-0.006
51.765,-0.01
51.78,-0.041
51.795,-0.048
51.81,-0.062
51.825,-0.051
51.84,-0.07
51.855,-0.042
51.87,0.021
51.885,-0.028
51.9,-0.073
51.915,-0.04
51.93,-0.023
51.945,0.005
51.96,-0.012
51.975,-0.03
51.99,-0.035
52.005,-0.008
52.02,-0.018
52.035,-0.052
52.05,-0.024
52.065,-0.038
52.08,-0.042
52.095,-0.031
52.11,-0.014
52.125,-0.044
52.14,-0.045
52.155,-0.014
52.17,-0.026
52.185,-0.031
52.2,-0.033
52.215,-0.039
52.23,-0.001
52.245,0.009
52.26,0.007
52.275,-0.042
52.29,-0.051
52.305,-0.05
52.32,-0.042
52.335,-0.047
52.35,-0.005
52.365,-0.001
52.38,-0.022
52.395,0
52.41,-0.036
52.425,-0.053
52.44,-0.012
52.455,-0.01
52.47,-0.016
52.485,-0.006
52.5,-0.008
52.515,-0.064
52.53,-0.073
52.545,-0.044
52.56,-0.029
52.575,-0.004
52.59,0.003
52.605,-0.001
52.62,0.017
52.635,0.023
52.65,-0.014
52.665,-0.051
52.68,-0.058
52.695,-0.051
52.71,-0.059
52.725,-0.039
52.74,-0.029
52.755,-0.02
52.77,-0.022
52.785,-0.051
52.8,-0.061
52.815,-0.037
52.83,-0.05
52.845,-0.059
52.86,-0.048
52.875,-0.048
52.89,-0.02
52.905,-0.029
52.92,-0.04
52.935,-0.022
52.95,-0.036
52.965,-0.047
52.98,-0.04
52.995,0.009
53.01,0.009
53.025,0.004
53.04,-0.047
53.055,-0.051
53.07,-0.019
53.085,0.034
53.1,0.007
53.115,-0.033
53.13,0.004
53.145,0.032
53.16,0.039
53.175,-0.007
53.19,-0.032
53.205,-0.02
53.22,0.021
53.235,0.035
53.25,0.038
53.265,0.009
53.28,0
53.295,-0.019
53.31,-0.013
53.325,-0.02
53.34,-0.05
53.355,0.007
53.37,-0.008
53.385,-0.073
53.4,-0.053
53.415,0.037
53.43,0.06
53.445,-0.008
53.46,-0.014
53.475,0.003
53.49,-0.001
53.505,0.029
53.52,0.041
53.535,0.014
53.55,0.019
53.565,0.02
53.58,0.032
53.595,-0.029
53.61,-0.054
53.625,0.02
53.64,-0.004
53.655,-0.001
53.67,-0.014
53.685,-0.003
53.7,0.019
53.715,0.017
53.73,0.024
53.745,0.015
53.76,0.007
53.775,-0.016
53.79,-0.026
53.805,-0.011
53.82,-0.018
53.835,-0.016
53.85,0.001
53.865,0.008
53.88,0.019
53.895,-0.019
53.91,-0.024
53.925,0.001
53.94,0
53.955,0.008
53.97,-0.002
53.985,-0.023
54,-0.023
54.015,-0.001
54.03,-0.044
54.045,-0.047
54.06,-0.01
54.075,-0.059
54.09,-0.073
54.105,-0.009
54.12,-0.006
54.135,-0.015
54.15,0.011
54.165,-0.014
54.18,-0.053
54.195,-0.07
54.21,0.013
54.225,0.012
54.24,-0.005
54.255,-0.03
54.27,-0.016
54.285,0.037
54.3,-0.022
54.315,-0.064
54.33,-0.045
54.345,-0.007
54.36,-0.007
54.375,-0.046
54.39,-0.018
54.405,0.022
54.42,-0.016
54.435,-0.066
54.45,-0.042
54.465,-0.038
54.48,-0.04
54.495,0.023
54.51,-0.019
54.525,-0.04
54.54,-0.052
54.555,-0.026
54.57,0.026
54.585,0.025
54.6,0.035
54.615,-0.013
54.63,-0.055
54.645,-0.014
54.66,-0.003
54.675,-0.025
54.69,-0.03
54.705,-0.044
54.72,-0.059
54.735,-0.046
54.75,-0.041
54.765,-0.014
54.78,-0.019
54.795,-0.052
54.81,-0.073
54.825,-0.052
54.84,-0.002
54.855,-0.043
54.87,-0.053
54.885,-0.015
54.9,-0.021
54.915,-0.072
54.93,-0.033
54.945,-0.001
54.96,0.007
54.975,-0.072
54.99,-0.056
55.005,0.016
55.02,-0.015
55.035,-0.039
55.05,-0.012
55.065,-0.073
55.08,-0.034
55.095,0.012
55.11,-0.021
55.125,-0.02
55.14,0
55.155,0.005
55.17,-0.001
55.185,-0.036
55.2,-0.045
55.215,-0.015
55.23,-0.039
55.245,-0.01
55.26,-0.034
55.275,-0.037
55.29,-0.051
55.305,-0.034
55.32,-0.03
55.335,-0.051
55.35,-0.073
55.365,-0.035
55.38,-0.017
55.395,-0.036
55.41,-0.051
55.425,-0.017
55.44,0.024
55.455,-0.014
55.47,-0.05
55.485,-0.036
55.5,-0.053
55.515,-0.054
55.53,-0.04
55.545,0.004
55.56,-0.043
55.575,-0.061
55.59,-0.073
55.605,-0.053
55.62,-0.028
55.635,-0.028
55.65,-0.006
55.665,0.009
55.68,0.014
55.695,-0.014
55.71,-0.019
55.725,-0.023
55.74,0.019
55.755,-0.017
55.77,-0.031
55.785,0.022
55.8,0.027
55.815,0.029
55.83,0.003
55.845,-0.03
55.86,0.005
55.875,-0.02
55.89,-0.026
55.905,-0.018
55.92,-0.024
55.935,0.02
55.95,0.029
55.965,-0.007
55.98,0.032
55.995,0.079
56.01,0.071
56.025,0.055
56.04,0.045
56.055,0.025
56.07,0.042
56.085,0.043
56.1,0.035
56.115,0.057
56.13,0.121
56.145,0.093
56.16,0.075
56.175,0.046
56.19,0.032
56.205,0.12
56.22,0.152
56.235,0.141
56.25,0.098
56.265,0.104
56.28,0.132
56.295,0.106
56.31,0.079
56.325,0.1
56.34,0.097
56.355,0.078
56.37,0.073
56.385,0.075
56.4,0.086
56.415,0.135
56.43,0.193
56.445,0.198
56.46,0.175
56.475,0.215
56.49,0.186
56.505,0.169
56.52,0.181
56.535,0.158
56.55,0.16
56.565,0.172
56.58,0.171
56.595,0.144
56.61,0.174
56.625,0.184
56.64,0.198
56.655,0.188
56.67,0.184
56.685,0.205
56.7,0.197
56.715,0.207
56.73,0.204
56.745,0.186
56.76,0.224
56.775,0.25
56.79,0.244
56.805,0.228
56.82,0.197
56.835,0.2
56.85,0.239
56.865,0.26
56.88,0.233
56.895,0.208
56.91,0.241
56.925,0.265
56.94,0.256
56.955,0.204
56.97,0.217
56.985,0.269
57,0.275
57.015,0.23
57.03,0.217
57.045,0.238
57.06,0.224
57.075,0.257
57.09,0.24
57.105,0.225
57.12,0.221
57.135,0.198
57.15,0.242
57.165,0.264
57.18,0.229
57.195,0.237
57.21,0.251
57.225,0.2
57.24,0.229
57.255,0.266
57.27,0.256
57.285,0.26
57.3,0.208
57.315,0.212
57.33,0.182
57.345,0.185
57.36,0.187
57.375,0.206
57.39,0.194
57.405,0.195
57.42,0.203
57.435,0.202
57.45,0.198
57.465,0.181
57.48,0.22
57.495,0.204
57.51,0.162
57.525,0.165
57.54,0.22
57.555,0.158
57.57,0.127
57.585,0.141
57.6,0.151
57.615,0.201
57.63,0.174
57.645,0.136
57.66,0.121
57.675,0.108
57.69,0.125
57.705,0.153
57.72,0.121
57.735,0.108
57.75,0.101
57.765,0.148
57.78,0.157
57.795,0.128
57.81,0.129
57.825,0.109
57.84,0.072
57.855,0.058
57.87,0.035
57.885,0.032
57.9,0.036
57.915,0.083
57.93,0.097
57.945,0.09
57.96,0.072
57.975,0.028
57.99,0.026
58.005,0.036
58.02,0.051
58.035,0.03
58.05,0.03
58.065,0.032
58.08,0.016
58.095,-0.02
58.11,-0.025
58.125,0.007
58.14,-0.002
58.155,0
58.17,-0.022
58.185,-0.014
58.2,0.021
58.215,0.014
58.23,-0.012
58.245,0.014
58.26,0.043
58.275,0.039
58.29,0.031
58.305,0.009
58.32,0.004
58.335,-0.034
58.35,-0.009
58.365,-0.013
58.38,-0.008
58.395,0.025
58.41,0.021
58.425,0.007
58.44,-0.018
58.455,-0.072
58.47,-0.044
58.485,-0.024
58.5,-0.067
58.515,-0.055
58.53,-0.047
58.545,-0.064
58.56,-0.041
58.575,-0.003
58.59,-0.009
58.605,-0.031
58.62,-0.021
58.635,0.003
58.65,-0.018
58.665,-0.021
58.68,-0.035
58.695,-0.072
58.71,-0.031
58.725,-0.021
58.74,-0.065
58.755,-0.072
58.77,-0.046
58.785,-0.043
58.8,-0.065
58.815,-0.06
58.83,-0.039
58.845,0.01
58.86,0.01
58.875,-0.01
58.89,-0.028
58.905,-0.034
58.92,-0.036
58.935,-0.034
58.95,-0.04
58.965,-0.058
58.98,-0.055
58.995,-0.054
59.01,-0.072
59.025,-0.033
59.04,0.018
59.055,-0.002
59.07,0.012
59.085,-0.007
59.1,-0.04
59.115,-0.061
59.13,-0.072
59.145,-0.018
59.16,-0.026
59.175,-0.044
59.19,-0.032
59.205,-0.032
59.22,0.004
59.235,-0.008
59.25,-0.063
59.265,-0.03
59.28,0.008
59.295,-0.052
59.31,-0.072
59.325,-0.042
59.34,-0.011
59.355,0.022
59.37,0.007
59.385,-0.014
59.4,-0.049
59.415,-0.04
59.43,-0.02
59.445,-0.017
59.46,-0.019
59.475,-0.035
59.49,-0.016
59.505,-0.053
59.52,-0.063
59.535,-0.043
59.55,-0.044
59.565,-0.002
59.58,0.005
59.595,-0.02
59.61,-0.018
59.625,0.014
59.64,-0.001
59.655,-0.068
59.67,-0.047
59.685,-0.011
59.7,-0.072
59.715,-0.055
59.73,-0.007
59.745,-0.02
59.76,-0.022
59.775,-0.051
59.79,-0.057
59.805,-0.034
59.82,-0.028
59.835,-0.03
59.85,-0.013
59.865,0.003
59.88,0.033
59.895,0.006
59.91,-0.007
59.925,0.019
59.94,-0.008
59.955,0.004
59.97,-0.002
59.985,-0.033
60,0.002
60.015,-0.009
60.03,0
60.045,-0.045
60.06,-0.047
60.075,-0.043
60.09,-0.019
60.105,0.029
60.12,0.04
60.135,0.024
60.15,0.015
60.165,-0.047
60.18,-0.072
60.195,-0.016
60.21,0
60.225,0.036
60.24,0.009
60.255,-0.025
60.27,0.006
60.285,-0.013
60.3,-0.049
60.315,-0.066
60.33,-0.042
60.345,-0.002
60.36,-0.056
60.375,-0.072
60.39,-0.031
60.405,-0.009
60.42,-0.023
60.435,-0.03
60.45,0
60.465,0.023
60.48,-0.023
60.495,-0.044
60.51,-0.05
60.525,-0.035
60.54,-0.031
60.555,-0.001
60.57,0.028
60.585,-0.012
60.6,-0.037
60.615,-0.022
60.63,-0.025
60.645,0.005
60.66,-0.022
60.675,0.022
60.69,0.054
60.705,0.026
60.72,-0.007
60.735,0.008
60.75,0.01
60.765,0.021
60.78,0.049
60.795,0.044
60.81,0.062
60.825,-0.006
60.84,0.001
60.855,0.072
60.87,0.073
60.885,0.028
60.9,0.027
60.915,0.116
60.93,0.128
60.945,0.076
60.96,0.097
60.975,0.106
60.99,0.086
61.005,0.108
61.02,0.076
61.035,0.066
61.05,0.061
61.065,0.079
61.08,0.154
61.095,0.123
61.11,0.089
61.125,0.115
61.14,0.156
61.155,0.182
61.17,0.17
61.185,0.125
61.2,0.073
61.215,0.03
61.23,0.109
61.245,0.086
61.26,0.039
61.275,0.08
61.29,0.106
61.305,0.075
61.32,0.057
61.335,0.068
61.35,0.053
61.365,0.059
61.38,0.072
61.395,0.07
61.41,0.098
61.425,0.06
61.44,0.07
61.455,0.054
61.47,0.05
61.485,0.039
61.5,-0.001
61.515,0.045
61.53,0.055
61.545,0.073
61.56,0.077
61.575,0.064
61.59,0.083
61.605,0.069
61.62,0.103
61.635,0.156
61.65,0.153
61.665,0.109
61.68,0.097
61.695,0.123
61.71,0.194
61.725,0.244
61.74,0.26
61.755,0.3
61.77,0.353
61.785,0.38
61.8,0.39
61.815,0.422
61.83,0.487
61.845,0.546
61.86,0.563
61.875,0.637
61.89,0.721
61.905,0.761
61.92,0.841
61.935,0.919
61.95,0.967
61.965,1.052
61.98,1.071
61.995,1.137
62.01,1.238
62.025,1.302
62.04,1.337
62.055,1.425
62.07,1.511
62.085,1.567
62.1,1.604
62.115,1.673
62.13,1.738
62.145,1.768
62.16,1.819
62.175,1.857
62.19,1.894
62.205,1.961
62.22,2.006
62.235,2.033
62.25,2.119
62.265,2.161
62.28,2.174
62.295,2.196
62.31,2.186
62.325,2.187
62.34,2.193
62.355,2.165
62.37,2.161
62.385,2.164
62.4,2.178
62.415,2.15
62.43,2.14
62.445,2.098
62.46,2.059
62.475,2.046
62.49,2.009
62.505,1.934
62.52,1.935
62.535,1.881
62.55,1.806
62.565,1.774
62.58,1.708
62.595,1.661
62.61,1.594
62.625,1.519
62.64,1.484
62.655,1.441
62.67,1.395
62.685,1.347
62.7,1.279
62.715,1.235
62.73,1.206
62.745,1.124
62.76,1.091
62.775,1.045
62.79,1.023
62.805,1.005
62.82,0.985
62.835,0.932
62.85,0.883
62.865,0.882
62.88,0.856
62.895,0.847
62.91,0.785
62.925,0.748
62.94,0.71
62.955,0.727
62.97,0.709
62.985,0.692
63,0.684
63.015,0.71
63.03,0.666
63.045,0.635
63.06,0.615
63.075,0.561
63.09,0.574
63.105,0.553
63.12,0.535
63.135,0.531
63.15,0.506
63.165,0.477
63.18,0.517
63.195,0.481
63.21,0.415
63.225,0.435
63.24,0.39
63.255,0.36
63.27,0.396
63.285,0.407
63.3,0.384
63.315,0.372
63.33,0.332
63.345,0.289
63.36,0.304
63.375,0.312
63.39,0.312
63.405,0.26
63.42,0.242
63.435,0.188
63.45,0.153
63.465,0.227
63.48,0.27
63.495,0.239
63.51,0.21
63.525,0.177
63.54,0.175
63.555,0.186
63.57,0.128
63.585,0.103
63.6,0.132
63.615,0.139
63.63,0.06
63.645,0.074
63.66,0.099
63.675,0.069
63.69,0.056
63.705,0.069
63.72,0.07
63.735,0.08
63.75,0.103
63.765,0.054
63.78,0.01
63.795,0.037
63.81,0.024
63.825,-0.021
63.84,-0.013
63.855,0.004
63.87,-0.027
63.885,-0.003
63.9,0.036
63.915,0.025
63.93,-0.003
63.945,-0.01
63.96,-0.005
63.975,0.015
63.99,-0.008
64.005,-0.053
64.02,-0.071
64.035,-0.011
64.05,0.058
64.065,0.043
64.08,0.024
64.095,0.01
64.11,0.005
64.125,-0.003
64.14,-0.039
64.155,-0.067
64.17,-0.046
64.185,-0.031
64.2,-0.029
64.215,-0.031
64.23,-0.071
64.245,-0.054
64.26,-0.024
64.275,-0.021
64.29,-0.037
64.305,-0.025
64.32,-0.009
64.335,-0.023
64.35,-0.028
64.365,-0.018
64.38,-0.058
64.395,-0.057
64.41,-0.037
64.425,-0.029
64.44,-0.04
64.455,-0.053
64.47,-0.034
64.485,-0.019
64.5,-0.04
64.515,-0.027
64.53,-0.038
64.545,-0.071
64.56,-0.062
64.575,-0.054
64.59,-0.01
64.605,-0.039
64.62,-0.067
64.635,-0.065
64.65,-0.064
64.665,-0.018
64.68,-0.015
64.695,-0.022
64.71,-0.018
64.725,-0.019
64.74,-0.042
64.755,-0.062
64.77,-0.055
64.785,-0.065
64.8,-0.071
64.815,-0.03
64.83,-0.036
64.845,-0.058
64.86,-0.027
64.875,-0.043
64.89,-0.05
64.905,-0.047
64.92,-0.03
64.935,-0.026
64.95,-0.033
64.965,-0.039
64.98,-0.025
64.995,-0.008
65.01,0.006
65.025,0.011
65.04,-0.034
65.055,-0.071
65.07,-0.055
65.085,-0.03
65.1,-0.041
65.115,-0.05
65.13,-0.005
65.145,0.01
65.16,-0.045
65.175,-0.035
65.19,-0.024
65.205,0.011
65.22,0.029
65.235,-0.01
65.25,-0.016
65.265,-0.022
65.28,-0.036
65.295,-0.03
65.31,-0.047
65.325,-0.029
65.34,-0.011
65.355,-0.047
65.37,-0.071
65.385,-0.061
65.4,0.012
65.415,0.03
65.43,-0.015
65.445,-0.012
65.46,-0.052
65.475,-0.054
65.49,-0.02
65.505,-0.052
65.52,-0.041
65.535,-0.04
65.55,-0.008
65.565,-0.021
65.58,-0.04
65.595,-0.053
65.61,-0.051
65.625,-0.02
65.64,-0.008
65.655,0.001
65.67,-0.01
65.685,-0.001
65.7,-0.012
65.715,-0.04
65.73,-0.052
65.745,0.059
65.76,0.034
65.775,-0.063
65.79,-0.039
65.805,-0.031
65.82,-0.062
65.835,-0.049
65.85,-0.036
65.865,-0.028
65.88,0.002
65.895,-0.036
65.91,-0.022
65.925,-0.007
65.94,0
65.955,-0.024
65.97,-0.02
65.985,-0.001
66,-0.071
66.015,-0.054
66.03,-0.018
66.045,-0.02
66.06,-0.01
66.075,-0.021
66.09,0.005
66.105,0.006
66.12,-0.021
66.135,-0.009
66.15,-0.022
66.165,-0.03
66.18,-0.017
66.195,-0.053
66.21,-0.054
66.225,-0.064
66.24,-0.042
66.255,-0.047
66.27,-0.041
66.285,-0.022
66.3,0.011
66.315,0.028
66.33,-0.001
66.345,-0.028
66.36,-0.019
66.375,-0.005
66.39,0.034
66.405,-0.008
66.42,-0.01
66.435,-0.032
66.45,-0.071
66.465,-0.022
66.48,0.015
66.495,-0.004
66.51,-0.023
66.525,-0.059
66.54,-0.045
66.555,0.001
66.57,0.031
66.585,0.036
66.6,0.004
66.615,-0.015
66.63,0.012
66.645,-0.006
66.66,-0.064
66.675,-0.054
66.69,-0.028
66.705,-0.008
66.72,0.031
66.735,-0.033
66.75,-0.057
66.765,-0.06
66.78,-0.045
66.795,-0.032
66.81,-0.024
66.825,-0.009
66.84,0.01
66.855,0.026
66.87,0.025
66.885,0.04
66.9,0.029
66.915,0.013
66.93,0.003
66.945,0.046
66.96,0.049
66.975,0.007
66.99,-0.039
67.005,-0.033
67.02,0.019
67.035,0.006
67.05,0.006
67.065,0.005
67.08,0.002
67.095,-0.016
67.11,0.033
67.125,0.01
67.14,0.02
67.155,0.023
67.17,0.022
67.185,0.053
67.2,0.013
67.215,0.026
67.23,0.047
67.245,0.018
67.26,0.007
67.275,-0.025
67.29,0.001
67.305,-0.02
67.32,0.01
67.335,0.013
67.35,-0.038
67.365,-0.048
67.38,-0.01
67.395,0.031
67.41,0.033
67.425,0.031
67.44,0.037
67.455,-0.01
67.47,0
67.485,0.015
67.5,-0.011
67.515,-0.025
67.53,-0.022
67.545,-0.003
67.56,0.013
67.575,0.076
67.59,0.025
67.605,-0.031
67.62,-0.07
67.635,-0.02
67.65,0.019
67.665,0.003
67.68,0.018
67.695,0.042
67.71,0.056
67.725,0.045
67.74,0.023
67.755,0.015
67.77,0.024
67.785,0.051
67.8,0.04
67.815,-0.015
67.83,-0.013
67.845,0.011
67.86,-0.039
67.875,-0.058
67.89,-0.004
67.905,0.005
67.92,0
67.935,-0.016
67.95,0.001
67.965,0.026
67.98,0.025
67.995,-0.006
68.01,-0.02
68.025,-0.034
68.04,-0.037
68.055,-0.004
68.07,-0.005
68.085,-0.008
68.1,-0.044
68.115,-0.016
68.13,-0.014
68.145,-0.008
68.16,0.005
68.175,0.02
68.19,0.064
68.205,0.037
68.22,0.003
68.235,0.004
68.25,-0.004
68.265,-0.009
68.28,-0.009
68.295,-0.019
68.31,-0.053
68.325,-0.057
68.34,-0.01
68.355,0.009
68.37,-0.02
68.385,-0.027
68.4,-0.002
68.415,0.008
68.43,0.035
68.445,-0.004
68.46,-0.044
68.475,-0.035
68.49,-0.05
68.505,-0.003
68.52,0.006
68.535,0.009
68.55,0.003
68.565,-0.009
68.58,-0.036
68.595,-0.07
68.61,-0.027
68.625,-0.003
68.64,-0.004
68.655,0.027
68.67,0.007
68.685,-0.02
68.7,-0.046
68.715,-0.021
68.73,0.011
68.745,0.051
68.76,0.01
68.775,-0.012
68.79,-0.011
68.805,-0.014
68.82,-0.06
68.835,-0.024
68.85,-0.004
68.865,0.006
68.88,0.005
68.895,0.006
68.91,0
68.925,0.017
68.94,-0.017
68.955,-0.033
68.97,-0.009
68.985,-0.019
69,-0.026
69.015,-0.035
69.03,-0.06
69.045,-0.057
69.06,-0.017
69.075,-0.006
69.09,-0.056
69.105,-0.011
69.12,0.013
69.135,0.007
69.15,-0.011
69.165,-0.013
69.18,-0.033
69.195,-0.026
69.21,-0.004
69.225,-0.029
69.24,-0.027
69.255,0.007
69.27,0.012
69.285,0.018
69.3,0.014
69.315,-0.007
69.33,-0.009
69.345,-0.028
69.36,-0.043
69.375,-0.046
69.39,-0.004
69.405,0.003
69.42,-0.017
69.435,0.001
69.45,-0.024
69.465,-0.009
69.48,0
69.495,-0.007
69.51,0.001
69.525,0.02
69.54,0.016
69.555,0.037
69.57,0.044
69.585,0.02
69.6,0.03
69.615,0.037
69.63,0.04
69.645,0.064
69.66,0.029
69.675,0.027
69.69,0.058
69.705,0.018
69.72,-0.007
69.735,0.033
69.75,0.08
69.765,0.06
69.78,0.025
69.795,0.074
69.81,0.064
69.825,0.076
69.84,0.073
69.855,0.054
69.87,0.076
69.885,0.069
69.9,0.063
69.915,0.068
69.93,0.068
69.945,0.072
69.96,0.082
69.975,0.07
69.99,0.071
70.005,0.085
70.02,0.094
70.035,0.116
70.05,0.128
70.065,0.124
70.08,0.129
70.095,0.087
70.11,0.08
70.125,0.112
70.14,0.093
70.155,0.075
70.17,0.116
70.185,0.131
70.2,0.107
70.215,0.115
70.23,0.105
70.245,0.143
70.26,0.159
70.275,0.141
70.29,0.159
70.305,0.143
70.32,0.158
70.335,0.161
70.35,0.142
70.365,0.19
70.38,0.206
70.395,0.185
70.41,0.147
70.425,0.145
70.44,0.152
70.455,0.168
70.47,0.171
70.485,0.166
70.5,0.164
70.515,0.188
70.53,0.225
70.545,0.191
70.56,0.193
70.575,0.183
70.59,0.249
70.605,0.263
70.62,0.201
70.635,0.196
70.65,0.214
70.665,0.219
70.68,0.232
70.695,0.29
70.71,0.292
70.725,0.245
70.74,0.207
70.755,0.215
70.77,0.233
70.785,0.255
70.8,0.26
70.815,0.273
70.83,0.244
70.845,0.203
70.86,0.22
70.875,0.277
70.89,0.279
70.905,0.278
70.92,0.294
70.935,0.344
70.95,0.316
70.965,0.288
70.98,0.297
70.995,0.301
71.01,0.326
71.025,0.334
71.04,0.367
71.055,0.373
71.07,0.37
71.085,0.352
71.1,0.342
71.115,0.326
71.13,0.343
71.145,0.365
71.16,0.355
71.175,0.373
71.19,0.378
71.205,0.362
71.22,0.376
71.235,0.384
71.25,0.383
71.265,0.388
71.28,0.387
71.295,0.358
71.31,0.383
71.325,0.434
71.34,0.43
71.355,0.441
71.37,0.412
71.385,0.443
71.4,0.49
71.415,0.46
71.43,0.416
71.445,0.428
71.46,0.381
71.475,0.432
71.49,0.506
71.505,0.547
71.52,0.534
71.535,0.46
71.55,0.423
71.565,0.453
71.58,0.458
71.595,0.507
71.61,0.495
71.625,0.482
71.64,0.505
71.655,0.51
71.67,0.462
71.685,0.491
71.7,0.521
71.715,0.542
71.73,0.53
71.745,0.562
71.76,0.584
71.775,0.557
71.79,0.564
71.805,0.589
71.82,0.6
71.835,0.605
71.85,0.596
71.865,0.598
71.88,0.614
71.895,0.628
71.91,0.632
71.925,0.62
71.94,0.627
71.955,0.637
71.97,0.655
71.985,0.635
72,0.63
72.015,0.672
72.03,0.64
72.045,0.64
72.06,0.64
72.075,0.688
72.09,0.691
72.105,0.663
72.12,0.696
72.135,0.762
72.15,0.8
72.165,0.771
72.18,0.71
72.195,0.734
72.21,0.745
72.225,0.749
72.24,0.749
72.255,0.754
72.27,0.761
72.285,0.78
72.3,0.782
72.315,0.801
72.33,0.824
72.345,0.812
72.36,0.808
72.375,0.76
72.39,0.764
72.405,0.807
72.42,0.842
72.435,0.908
72.45,0.86
72.465,0.854
72.48,0.874
72.495,0.905
72.51,0.917
72.525,0.891
72.54,0.881
72.555,0.893
72.57,0.93
72.585,0.942
72.6,0.902
72.615,0.918
72.63,0.986
72.645,0.981
72.66,0.978
72.675,0.988
72.69,0.989
72.705,1.005
72.72,1.015
72.735,1.046
72.75,1.048
72.765,1.041
72.78,1.047
72.795,1.081
72.81,1.088
72.825,1.081
72.84,1.105
72.855,1.095
72.87,1.067
72.885,1.134
72.9,1.156
72.915,1.196
72.93,1.181
72.945,1.169
72.96,1.19
72.975,1.201
72.99,1.205
73.005,1.195
73.02,1.198
73.035,1.237
73.05,1.275
73.065,1.25
73.08,1.278
73.095,1.293
73.11,1.28
73.125,1.304
73.14,1.329
73.155,1.338
73.17,1.295
73.185,1.323
73.2,1.385
73.215,1.419
73.23,1.365
73.245,1.395
73.26,1.444
73.275,1.384
73.29,1.353
73.305,1.407
73.32,1.471
73.335,1.46
73.35,1.454
73.365,1.462
73.38,1.46
73.395,1.477
73.41,1.507
73.425,1.502
73.44,1.507
73.455,1.491
73.47,1.53
73.485,1.564
73.5,1.539
73.515,1.537
73.53,1.545
73.545,1.577
73.56,1.63
73.575,1.582
73.59,1.585
73.605,1.566
73.62,1.571
73.635,1.62
73.65,1.667
73.665,1.67
73.68,1.661
73.695,1.66
73.71,1.668
73.725,1.658
73.74,1.669
73.755,1.676
73.77,1.652
73.785,1.645
73.8,1.709
73.815,1.699
73.83,1.694
73.845,1.75
73.86,1.749
73.875,1.794
73.89,1.776
73.905,1.75
73.92,1.771
73.935,1.815
73.95,1.881
73.965,1.846
73.98,1.797
73.995,1.809
74.01,1.822
74.025,1.868
74.04,1.879
74.055,1.868
74.07,1.85
74.085,1.884
74.1,1.929
74.115,1.896
74.13,1.914
74.145,1.947
74.16,1.947
74.175,1.972
74.19,1.995
74.205,1.997
74.22,1.986
74.235,1.965
74.25,1.974
74.265,1.994
74.28,2.07
74.295,2.094
74.31,2.089
74.325,2.095
74.34,2.109
74.355,2.118
74.37,2.134
74.385,2.11
74.4,2.104
74.415,2.117
74.43,2.112
74.445,2.175
74.46,2.177
74.475,2.198
74.49,2.216
74.505,2.207
74.52,2.197
74.535,2.206
74.55,2.233
74.565,2.194
74.58,2.228
74.595,2.294
74.61,2.32
74.625,2.253
74.64,2.247
74.655,2.299
74.67,2.301
74.685,2.341
74.7,2.326
74.715,2.355
74.73,2.328
74.745,2.307
74.76,2.335
74.775,2.367
74.79,2.383
74.805,2.355
74.82,2.367
74.835,2.399
74.85,2.413
74.865,2.417
74.88,2.449
74.895,2.448
74.91,2.421
74.925,2.437
74.94,2.444
74.955,2.445
74.97,2.501
74.985,2.52
75,2.411
75.015,2.31
75.03,2.196
75.045,2.188
75.06,2.185
75.075,2.141
75.09,2.035
75.105,1.957
75.12,1.928
75.135,1.966
75.15,1.955
75.165,1.93
75.18,1.944
75.195,1.891
75.21,1.77
75.225,1.756
75.24,1.735
75.255,1.667
75.27,1.625
75.285,1.628
75.3,1.66
75.315,1.481
75.33,1.493
75.345,0
