24.99,30.593
25.005,30.707
25.02,28.534
25.035,28.678
25.05,29.076
25.065,28.798
25.08,29.072
25.095,29.266
25.11,28.745
25.125,28.169
25.14,28.082
25.155,28.959
25.17,29.45
25.185,29.673
25.2,28.605
25.215,28.146
25.23,29.2
25.245,29.689
25.26,29.735
25.275,29.93
25.29,29.097
25.305,28.29
25.32,28.607
25.335,29.137
25.35,30.024
25.365,30.49
25.38,30.168
25.395,29.236
25.41,29.109
25.425,29.096
25.44,29.434
25.455,29.391
25.47,29.323
25.485,29.681
25.5,29.624
25.515,29.863
25.53,29.833
25.545,29.662
25.56,29.678
25.575,29.164
25.59,29.334
25.605,29.531
25.62,29.29
25.635,29.185
25.65,28.802
25.665,28.443
25.68,28.162
25.695,28.935
25.71,29.226
25.725,29.488
25.74,29.009
25.755,28.716
25.77,28.828
25.785,29.394
25.8,29.353
25.815,29.391
25.83,28.874
25.845,29.29
25.86,28.971
25.875,28.804
25.89,29.615
25.905,29.333
25.92,29.234
25.935,29.671
25.95,29.046
25.965,29.29
25.98,28.907
25.995,28.512
26.01,28.875
26.025,28.793
26.04,28.331
26.055,28.952
26.07,29.49
26.085,28.724
26.1,28.002
26.115,28.598
26.13,29.193
26.145,29.336
26.16,28.822
26.175,28.622
26.19,28.724
26.205,29.16
26.22,29.66
26.235,29.327
26.25,29.179
26.265,28.964
26.28,28.905
26.295,28.815
26.31,28.625
26.325,28.368
26.34,28.987
26.355,28.92
26.37,29.112
26.385,29.243
26.4,29.558
26.415,29.412
26.43,28.972
26.445,28.91
26.46,28.972
26.475,27.834
26.49,28.079
26.505,28.535
26.52,28.768
26.535,28.79
26.55,29.037
26.565,29.157
26.58,28.973
26.595,29.012
26.61,29.222
26.625,29.131
26.64,28.504
26.655,28.516
26.67,29.186
26.685,29.19
26.7,28.722
26.715,28.438
26.73,28.278
26.745,28.66
26.76,28.816
26.775,29.063
26.79,29.374
26.805,29.641
26.82,29.131
26.835,28.348
26.85,28.777
26.865,28.832
26.88,28.823
26.895,29.208
26.91,28.637
26.925,28.247
26.94,28.016
26.955,28.236
26.97,28.646
26.985,27.982
27,27.752
27.015,28.456
27.03,28.434
27.045,28.593
27.06,28.316
27.075,28.62
27.09,29.251
27.105,28.656
27.12,28.401
27.135,28.533
27.15,28.288
27.165,28.132
27.18,28.443
27.195,28.761
27.21,28.667
27.225,28.832
27.24,28.914
27.255,28.878
27.27,28.522
27.285,28.166
27.3,28.177
27.315,28.531
27.33,28.448
27.345,28.318
27.36,28.741
27.375,28.899
27.39,28.805
27.405,29.191
27.42,29.095
27.435,28.719
27.45,28.505
27.465,28.772
27.48,28.706
27.495,28.617
27.51,28.658
27.525,28.951
27.54,28.892
27.555,28.506
27.57,27.436
27.585,28.314
27.6,28.895
27.615,28.8
27.63,28.361
27.645,28.459
27.66,27.681
27.675,27.556
27.69,27.999
27.705,28.74
27.72,28.805
27.735,28.672
27.75,28.785
27.765,28.635
27.78,28.316
27.795,28.547
27.81,28.496
27.825,28.552
27.84,28.44
27.855,28.695
27.87,28.486
27.885,28.547
27.9,28.649
27.915,28.007
27.93,28.211
27.945,27.732
27.96,27.881
27.975,27.973
27.99,28.127
28.005,28.246
28.02,27.776
28.035,28.076
28.05,28.719
28.065,28.652
28.08,28.353
28.095,28.502
28.11,28.639
28.125,28.882
28.14,28.786
28.155,28.456
28.17,28.208
28.185,28.151
28.2,28.1
28.215,27.933
28.23,28.096
28.245,28.746
28.26,28.904
28.275,28.897
28.29,28.926
28.305,28.386
28.32,28.594
28.335,28.199
28.35,28.385
28.365,28.399
28.38,28.784
28.395,28.742
28.41,28.448
28.425,28.338
28.44,28.232
28.455,28.422
28.47,28.047
28.485,28.159
28.5,28.429
28.515,28.558
28.53,28.623
28.545,28.499
28.56,27.79
28.575,28.212
28.59,28.597
28.605,28.855
28.62,28.645
28.635,28.568
28.65,28.586
28.665,28.298
28.68,27.827
28.695,28.358
28.71,28.66
28.725,29.05
28.74,28.365
28.755,28.103
28.77,28.437
28.785,28.438
28.8,28.589
28.815,29.091
28.83,28.196
28.845,28.068
28.86,27.964
28.875,27.886
28.89,28.019
28.905,27.764
28.92,27.726
28.935,28.093
28.95,28.893
28.965,29.294
28.98,28.891
28.995,28.821
29.01,28.401
29.025,28.335
29.04,28.077
29.055,28.222
29.07,28.413
29.085,28.701
29.1,28.949
29.115,28.453
29.13,28.706
29.145,28.837
29.16,28.753
29.175,28.663
29.19,28.579
29.205,28.266
29.22,28.642
29.235,28.645
29.25,28.621
29.265,28.136
29.28,28.353
29.295,28.8
29.31,28.756
29.325,29.126
29.34,29.077
29.355,28.885
29.37,28.614
29.385,28.303
29.4,28.161
29.415,28.691
29.43,29.05
29.445,29.06
29.46,29.1
29.475,28.719
29.49,28.757
29.505,28.729
29.52,29.057
29.535,29.405
29.55,29.156
29.565,28.715
29.58,28.452
29.595,28.914
29.61,28.93
29.625,28.495
29.64,28.481
29.655,29.121
29.67,29.564
29.685,28.824
29.7,28.717
29.715,28.326
29.73,28.855
29.745,28.746
29.76,29.195
29.775,28.98
29.79,28.894
29.805,29.496
29.82,29.59
29.835,29.045
29.85,28.81
29.865,28.795
29.88,29.057
29.895,29.011
29.91,28.756
29.925,28.628
29.94,29.501
29.955,29.104
29.97,29.22
29.985,29.217
30,29.152
30.015,29.155
30.03,29.175
30.045,29.518
30.06,29.962
30.075,29.903
30.09,29.333
30.105,28.861
30.12,28.839
30.135,28.556
30.15,29.085
30.165,29.325
30.18,29.404
30.195,29.495
30.21,28.998
30.225,29.003
30.24,29.131
30.255,29.144
30.27,29.361
30.285,29.266
30.3,29.032
30.315,29.203
30.33,29.636
30.345,29.441
30.36,28.737
30.375,28.949
30.39,29.205
30.405,29.033
30.42,29.122
30.435,28.968
30.45,28.938
30.465,28.993
30.48,28.742
30.495,29.025
30.51,28.89
30.525,29.025
30.54,29.143
30.555,29.104
30.57,28.921
30.585,28.664
30.6,28.921
30.615,28.985
30.63,28.744
30.645,28.78
30.66,28.398
30.675,28.8
30.69,29.202
30.705,28.572
30.72,28.449
30.735,29.071
30.75,29.344
30.765,28.764
30.78,28.93
30.795,29.098
30.81,29.023
30.825,29.22
30.84,29.336
30.855,28.62
30.87,29.166
30.885,29.299
30.9,29.092
30.915,28.764
30.93,28.658
30.945,28.614
30.96,28.435
30.975,27.776
30.99,28.031
31.005,28.502
31.02,29.084
31.035,28.728
31.05,28.805
31.065,28.826
31.08,28.557
31.095,28.874
31.11,29.29
31.125,28.418
31.14,27.77
31.155,27.991
31.17,28.494
31.185,28.292
31.2,28.351
31.215,28.373
31.23,28.725
31.245,28.631
31.26,28.5
31.275,28.37
31.29,28.379
31.305,28.89
31.32,28.509
31.335,28.405
31.35,28.419
31.365,28.247
31.38,28.427
31.395,28.544
31.41,28.345
31.425,28.642
31.44,28.972
31.455,29.035
31.47,28.271
31.485,28.189
31.5,28.415
31.515,28.641
31.53,28.741
31.545,28.466
31.56,28.716
31.575,28.459
31.59,28.078
31.605,27.975
31.62,28.708
31.635,29.005
31.65,28.371
31.665,28.188
31.68,28
31.695,28.308
31.71,28.709
31.725,28.367
31.74,27.94
31.755,28.021
31.77,28.519
31.785,28.742
31.8,29.03
31.815,28.954
31.83,28.658
31.845,28.51
31.86,28.907
31.875,28.38
31.89,28.205
31.905,28.544
31.92,28.995
31.935,28.325
31.95,28.062
31.965,28.464
31.98,28.518
31.995,28.331
32.01,28.223
32.025,28.134
32.04,28.083
32.055,28.343
32.07,28.842
32.085,28.755
32.1,28.428
32.115,28.251
32.13,28.315
32.145,28.473
32.16,28.429
32.175,28.239
32.19,28.224
32.205,28.167
32.22,28.274
32.235,28.362
32.25,27.942
32.265,28.492
32.28,28.449
32.295,28.136
32.31,28.072
32.325,28.704
32.34,28.514
32.355,28.482
32.37,28.689
32.385,28.662
32.4,28.432
32.415,28.427
32.43,28.265
32.445,28.487
32.46,28.444
32.475,28.281
32.49,28.35
32.505,28.769
32.52,28.493
32.535,28.33
32.55,28.584
32.565,28.354
32.58,28.209
32.595,28.059
32.61,28.129
32.625,28.505
32.64,28.641
32.655,28.387
32.67,28.64
32.685,28.165
32.7,28.444
32.715,28.343
32.73,27.93
32.745,27.614
32.76,28.142
32.775,28.294
32.79,28.457
32.805,28.307
32.82,27.747
32.835,27.958
32.85,28.234
32.865,28.298
32.88,28.002
32.895,28.166
32.91,28.666
32.925,28.388
32.94,28.564
32.955,28.803
32.97,28.5
32.985,28.209
33,29.063
33.015,29.002
33.03,28.55
33.045,27.985
33.06,27.73
33.075,28.254
33.09,28.054
33.105,28.157
33.12,28.3
33.135,28.441
33.15,28.103
33.165,28.264
33.18,28.431
33.195,28.458
33.21,28.479
33.225,28.361
33.24,28.425
33.255,28.316
33.27,27.863
33.285,28.141
33.3,28.742
33.315,29.002
33.33,28.151
33.345,27.98
33.36,28.738
33.375,29.074
33.39,28.902
33.405,28.544
33.42,28.548
33.435,28.379
33.45,28.537
33.465,28.699
33.48,28.247
33.495,28.614
33.51,28.909
33.525,28.744
33.54,28.919
33.555,29.086
33.57,28.378
33.585,28.538
33.6,28.543
33.615,29.033
33.63,28.906
33.645,28.833
33.66,29.087
33.675,27.881
33.69,28.282
33.705,28.852
33.72,29.132
33.735,29.163
33.75,28.945
33.765,28.827
33.78,28.357
33.795,28.298
33.81,28.629
33.825,28.752
33.84,28.422
33.855,28.735
33.87,28.856
33.885,28.886
33.9,28.184
33.915,28.019
33.93,28.023
33.945,28.339
33.96,28.635
33.975,28.583
33.99,28.889
34.005,28.849
34.02,29.146
34.035,29.027
34.05,28.786
34.065,28.902
34.08,29.101
34.095,28.507
34.11,28.613
34.125,28.496
34.14,28.868
34.155,29.066
34.17,28.614
34.185,28.704
34.2,29.088
34.215,28.925
34.23,28.757
34.245,28.57
34.26,28.719
34.275,29.019
34.29,28.735
34.305,28.82
34.32,29.211
34.335,29.208
34.35,29.117
34.365,29.606
34.38,29.468
34.395,29.158
34.41,29.388
34.425,29.565
34.44,29.175
34.455,29.167
34.47,29.59
34.485,30.158
34.5,29.794
34.515,29.877
34.53,29.758
34.545,29.375
34.56,29.493
34.575,29.94
34.59,29.587
34.605,29.281
34.62,29.148
34.635,29.632
34.65,29.611
34.665,29.892
34.68,30.043
34.695,30.183
34.71,29.842
34.725,29.807
34.74,29.804
34.755,30.007
34.77,30.137
34.785,30.043
34.8,30.35
34.815,30.429
34.83,30.58
34.845,30.584
34.86,30.296
34.875,30.672
34.89,30.733
34.905,30.084
34.92,30.198
34.935,30.67
34.95,30.033
34.965,30.959
34.98,31.4
34.995,31.023
35.01,30.459
35.025,30.557
35.04,30.471
35.055,30.352
35.07,30.59
35.085,31.082
35.1,31.758
35.115,30.924
35.13,30.466
35.145,30.653
35.16,30.718
35.175,30.702
35.19,30.809
35.205,31.28
35.22,31.375
35.235,31.002
35.25,30.857
35.265,31.393
35.28,31.522
35.295,31.354
35.31,30.765
35.325,30.594
35.34,30.863
35.355,31.049
35.37,31.324
35.385,30.816
35.4,30.958
35.415,31.741
35.43,31.12
35.445,30.78
35.46,30.843
35.475,31.294
35.49,31.145
35.505,31.185
35.52,31.276
35.535,31.212
35.55,31.029
35.565,30.559
35.58,30.873
35.595,31.234
35.61,30.821
35.625,30.736
35.64,30.51
35.655,30.657
35.67,30.92
35.685,30.915
35.7,30.678
35.715,30.468
35.73,30.439
35.745,30.996
35.76,30.442
35.775,30.239
35.79,30.298
35.805,30.718
35.82,30.612
35.835,30.684
35.85,30.821
35.865,30.645
35.88,30.688
35.895,30.597
35.91,30.294
35.925,30.071
35.94,30.115
35.955,30.255
35.97,30.338
35.985,29.989
36,30.029
36.015,29.973
36.03,29.592
36.045,29.756
36.06,30.167
36.075,29.956
36.09,29.632
36.105,30.098
36.12,30.405
36.135,29.042
36.15,29.095
36.165,29.36
36.18,29.485
36.195,30.256
36.21,30.145
36.225,29.474
36.24,29.577
36.255,29.669
36.27,29.639
36.285,29.412
36.3,29.284
36.315,29.715
36.33,29.427
36.345,29.355
36.36,29.612
36.375,29.286
36.39,29.246
36.405,29.137
36.42,29.245
36.435,29.615
36.45,29.347
36.465,29.074
36.48,29.595
36.495,29.786
36.51,29.988
36.525,29.954
36.54,29.038
36.555,28.948
36.57,29.359
36.585,29.508
36.6,29.839
36.615,29.392
36.63,29.157
36.645,29.185
36.66,29.045
36.675,29.094
36.69,29.263
36.705,29.51
36.72,29.611
36.735,29.375
36.75,29.778
36.765,29.718
36.78,28.843
36.795,29.07
36.81,29.588
36.825,29.457
36.84,28.956
36.855,28.494
36.87,28.842
36.885,28.952
36.9,29.245
36.915,29.166
36.93,28.566
36.945,28.966
36.96,29.394
36.975,29.752
36.99,29.466
37.005,29.202
37.02,29.595
37.035,29.366
37.05,29.076
37.065,29.356
37.08,29.203
37.095,28.676
37.11,28.562
37.125,28.482
37.14,28.202
37.155,28.502
37.17,28.513
37.185,28.194
37.2,28.331
37.215,28.481
37.23,28.46
37.245,28.252
37.26,28.143
37.275,28.472
37.29,28.572
37.305,28.623
37.32,28.139
37.335,28.061
37.35,28.057
37.365,28.426
37.38,28.454
37.395,28.561
37.41,28.191
37.425,28.036
37.44,27.768
37.455,27.263
37.47,27.349
37.485,27.414
37.5,27.874
37.515,28.172
37.53,27.898
37.545,27.907
37.56,28.75
37.575,28.341
37.59,27.851
37.605,27.819
37.62,27.968
37.635,28.085
37.65,27.874
37.665,27.632
37.68,27.335
37.695,27.528
37.71,27.925
37.725,27.558
37.74,27.669
37.755,28.284
37.77,27.91
37.785,27.544
37.8,27.743
37.815,27.47
37.83,27.476
37.845,27.54
37.86,27.723
37.875,27.247
37.89,27.499
37.905,28.031
37.92,27.612
37.935,27.088
37.95,27.511
37.965,27.307
37.98,26.978
37.995,27.653
38.01,27.909
38.025,28.05
38.04,27.81
38.055,27.346
38.07,27.375
38.085,27.807
38.1,27.521
38.115,27.33
38.13,27.376
38.145,27.486
38.16,28.059
38.175,27.631
38.19,27.448
38.205,27.823
38.22,27.811
38.235,27.697
38.25,27.886
38.265,27.736
38.28,27.908
38.295,28.458
38.31,27.876
38.325,27.349
38.34,27.675
38.355,27.332
38.37,27.05
38.385,27.326
38.4,26.982
38.415,26.76
38.43,26.993
38.445,27.447
38.46,27.664
38.475,27.493
38.49,27.146
38.505,26.884
38.52,27.188
38.535,28.151
38.55,28.214
38.565,27.787
38.58,27.715
38.595,27.816
38.61,27.992
38.625,27.701
38.64,27.577
38.655,27.646
38.67,27.565
38.685,27.573
38.7,27.346
38.715,27.602
38.73,27.55
38.745,27.191
38.76,27.228
38.775,27.459
38.79,27.091
38.805,26.921
38.82,27.354
38.835,27.274
38.85,27.31
38.865,27.102
38.88,27.284
38.895,27.111
38.91,27.577
38.925,27.968
38.94,27.412
38.955,27.256
38.97,27.146
38.985,27.231
39,27.076
39.015,27.208
39.03,27.487
39.045,27.501
39.06,26.981
39.075,27.25
39.09,27.63
39.105,27.998
39.12,27.353
39.135,27.293
39.15,27.433
39.165,27.131
39.18,27.381
39.195,27.647
39.21,27.554
39.225,27.227
39.24,26.491
39.255,26.403
39.27,26.762
39.285,26.946
39.3,27.036
39.315,27.446
39.33,27.694
39.345,27.389
39.36,27.615
39.375,27.062
39.39,27.232
39.405,27.26
39.42,27.145
39.435,27.065
39.45,27.499
39.465,27.844
39.48,27.035
39.495,27.503
39.51,27.763
39.525,27.444
39.54,27.681
39.555,27.827
39.57,28.086
39.585,28.189
39.6,27.892
39.615,27.604
39.63,27.643
39.645,27.601
39.66,26.877
39.675,26.915
39.69,26.882
39.705,27.079
39.72,27.312
39.735,27.206
39.75,27.259
39.765,26.671
39.78,26.415
39.795,26.834
39.81,26.939
39.825,27.053
39.84,27.377
39.855,27.359
39.87,27.232
39.885,27.656
39.9,27.917
39.915,27.91
39.93,27.469
39.945,27.044
39.96,27.186
39.975,27.79
39.99,27.761
40.005,27.486
40.02,26.818
40.035,26.979
40.05,27.377
40.065,27.38
40.08,26.982
40.095,27.256
40.11,27.259
40.125,26.7
40.14,26.78
40.155,27.188
40.17,27.268
40.185,27.187
40.2,27.084
40.215,27.172
40.23,27.008
40.245,26.989
40.26,26.878
40.275,26.814
40.29,26.709
40.305,26.752
40.32,27.103
40.335,27.506
40.35,27.577
40.365,27.576
40.38,27.318
40.395,27.022
40.41,27.19
40.425,27.391
40.44,26.897
40.455,26.664
40.47,26.987
40.485,26.558
40.5,26.645
40.515,27.128
40.53,27.345
40.545,26.719
40.56,26.885
40.575,27.275
40.59,27.221
40.605,27.29
40.62,26.998
40.635,27.097
40.65,27.299
40.665,27.442
40.68,27.501
40.695,27.759
40.71,27.601
40.725,27.145
40.74,26.885
40.755,27.171
40.77,27.355
40.785,27.158
40.8,26.845
40.815,26.95
40.83,27.139
40.845,27.2
40.86,27.553
40.875,27.463
40.89,27.197
40.905,27.343
40.92,27.409
40.935,27.691
40.95,27.476
40.965,26.824
40.98,26.791
40.995,27.219
41.01,26.958
41.025,26.593
41.04,27.143
41.055,27.778
41.07,27.353
41.085,27.062
41.1,26.964
41.115,26.666
41.13,26.939
41.145,27.163
41.16,26.847
41.175,26.306
41.19,26.965
41.205,27.36
41.22,27.198
41.235,27.193
41.25,27.25
41.265,27.561
41.28,27.205
41.295,26.659
41.31,26.846
41.325,27.307
41.34,27.121
41.355,26.747
41.37,26.844
41.385,26.97
41.4,27.325
41.415,27.286
41.43,27.069
41.445,27.161
41.46,27.181
41.475,26.812
41.49,27.029
41.505,27.387
41.52,27.4
41.535,27.704
41.55,27.179
41.565,26.922
41.58,27.41
41.595,27.22
41.61,27.513
41.625,27.687
41.64,27.441
41.655,27.492
41.67,27.834
41.685,27.86
41.7,28.012
41.715,28.099
41.73,27.597
41.745,27.855
41.76,27.814
41.775,27.723
41.79,28.014
41.805,27.664
41.82,27.665
41.835,27.911
41.85,27.525
41.865,27.5
41.88,27.669
41.895,27.55
41.91,27.603
41.925,28.122
41.94,27.98
41.955,27.556
41.97,27.292
41.985,27.862
42,27.749
42.015,27.52
42.03,27.7
42.045,28.147
42.06,28.306
42.075,27.681
42.09,27.379
42.105,27.392
42.12,28.183
42.135,28.168
42.15,27.61
42.165,27.055
42.18,26.917
42.195,27.392
42.21,27.749
42.225,27.86
42.24,28.084
42.255,28.54
42.27,28.057
42.285,27.46
42.3,28.182
42.315,28.324
42.33,27.74
42.345,27.982
42.36,28.272
42.375,28.174
42.39,28.266
42.405,27.96
42.42,27.891
42.435,28.039
42.45,28.047
42.465,28.652
42.48,28.259
42.495,27.88
42.51,28.26
42.525,28.375
42.54,28.202
42.555,28.148
42.57,28.895
42.585,28.588
42.6,28.541
42.615,28.963
42.63,29.221
42.645,29.474
42.66,29.104
42.675,29.352
42.69,29.492
42.705,29.542
42.72,29.136
42.735,29.535
42.75,29.942
42.765,29.788
42.78,29.771
42.795,29.502
42.81,29.525
42.825,30
42.84,29.986
42.855,29.749
42.87,29.676
42.885,29.658
42.9,29.65
42.915,29.569
42.93,29.485
42.945,29.541
42.96,29.175
42.975,29.581
42.99,29.744
43.005,29.684
43.02,29.94
43.035,29.817
43.05,29.702
43.065,29.401
43.08,29.151
43.095,29.099
43.11,28.866
43.125,28.769
43.14,28.993
43.155,29.252
43.17,28.765
43.185,28.265
43.2,27.983
43.215,27.775
43.23,28.167
43.245,28.425
43.26,28.537
43.275,28.262
43.29,28.337
43.305,28.246
43.32,27.698
43.335,27.209
43.35,27.537
43.365,27.56
43.38,27.199
43.395,26.899
43.41,27.45
43.425,28.053
43.44,27.521
43.455,27.512
43.47,27.822
43.485,27.639
43.5,27.616
43.515,27.901
43.53,28.26
43.545,28.083
43.56,27.78
43.575,27.696
43.59,27.141
43.605,27.386
43.62,26.968
43.635,26.929
43.65,27.148
43.665,27.22
43.68,26.84
43.695,26.979
43.71,27.482
43.725,27.611
43.74,27.785
43.755,27.382
43.77,27.313
43.785,27.627
43.8,27.935
43.815,27.524
43.83,27.36
43.845,27.108
43.86,26.912
43.875,27.067
43.89,27.152
43.905,27.113
43.92,27.077
43.935,27.397
43.95,26.848
43.965,27.199
43.98,27.122
43.995,26.828
44.01,26.975
44.025,27.033
44.04,26.83
44.055,26.964
44.07,26.961
44.085,26.786
44.1,26.836
44.115,27.298
44.13,27.143
44.145,26.508
44.16,26.955
44.175,27.218
44.19,26.797
44.205,27.021
44.22,27.536
44.235,27.074
44.25,26.577
44.265,26.905
44.28,27.098
44.295,26.829
44.31,26.255
44.325,26.95
44.34,27.153
44.355,27.029
44.37,26.875
44.385,27.041
44.4,26.845
44.415,26.953
44.43,27.113
44.445,26.368
44.46,26.457
44.475,26.911
44.49,26.778
44.505,27.449
44.52,27.308
44.535,26.879
44.55,26.624
44.565,26.58
44.58,26.658
44.595,26.724
44.61,26.947
44.625,27.195
44.64,27.193
44.655,26.849
44.67,26.434
44.685,26.651
44.7,26.675
44.715,26.574
44.73,26.606
44.745,26.551
44.76,27.172
44.775,27.202
44.79,27.06
44.805,27.223
44.82,26.493
44.835,26.602
44.85,26.94
44.865,26.793
44.88,26.371
44.895,26.615
44.91,26.513
44.925,26.143
44.94,26.216
44.955,26.598
44.97,26.481
44.985,26.378
45,27.123
45.015,27.076
45.03,26.879
45.045,26.468
45.06,26.398
45.075,26.56
45.09,26.967
45.105,27.107
45.12,26.915
45.135,26.989
45.15,26.897
45.165,26.684
45.18,26.545
45.195,26.492
45.21,26.58
45.225,26.779
45.24,26.392
45.255,25.912
45.27,26.608
45.285,26.934
45.3,26.51
45.315,26.504
45.33,26.676
45.345,26.759
45.36,26.71
45.375,26.643
45.39,26.557
45.405,26.931
45.42,26.949
45.435,27.22
45.45,27.296
45.465,26.545
45.48,26.28
45.495,26.684
45.51,26.632
45.525,26.505
45.54,26.731
45.555,26.992
45.57,26.476
45.585,26.56
45.6,26.571
45.615,26.59
45.63,26.493
45.645,26.264
45.66,26.842
45.675,26.765
45.69,26.644
45.705,26.905
45.72,26.537
45.735,26.339
45.75,26.402
45.765,26.364
45.78,26.579
45.795,26.611
45.81,26.647
45.825,26.51
45.84,26.508
45.855,26.39
45.87,26.597
45.885,26.694
45.9,27.109
45.915,26.776
45.93,27.374
45.945,27.148
45.96,26.924
45.975,26.742
45.99,26.494
46.005,26.163
46.02,26.507
46.035,27.024
46.05,26.87
46.065,27.079
46.08,26.423
46.095,26.668
46.11,26.641
46.125,26.472
46.14,26.09
46.155,26.4
46.17,26.298
46.185,26.826
46.2,26.969
46.215,26.806
46.23,26.713
46.245,26.737
46.26,26.302
46.275,26.106
46.29,26.213
46.305,26.718
46.32,26.73
46.335,26.769
46.35,26.941
46.365,26.998
46.38,26.794
46.395,26.693
46.41,26.802
46.425,26.95
46.44,26.6
46.455,26.862
46.47,26.72
46.485,26.406
46.5,26.65
46.515,26.711
46.53,26.506
46.545,26.823
46.56,26.162
46.575,26.048
46.59,26.978
46.605,27.553
46.62,27.454
46.635,26.649
46.65,26.854
46.665,26.898
46.68,26.56
46.695,26.821
46.71,27.166
46.725,27.481
46.74,27.309
46.755,26.91
46.77,26.959
46.785,27.311
46.8,26.57
46.815,26.545
46.83,26.765
46.845,26.518
46.86,26.025
46.875,26.338
46.89,26.872
46.905,26.677
46.92,26.301
46.935,26.448
46.95,26.552
46.965,26.987
46.98,26.979
46.995,26.481
47.01,26.803
47.025,26.643
47.04,26.506
47.055,26.574
47.07,26.514
47.085,26.386
47.1,26.569
47.115,26.077
47.13,26.09
47.145,26.648
47.16,26.813
47.175,26.465
47.19,26.399
47.205,26.753
47.22,26.25
47.235,26.714
47.25,26.751
47.265,26.505
47.28,26.703
47.295,26.998
47.31,26.915
47.325,26.762
47.34,26.819
47.355,26.677
47.37,26.589
47.385,26.75
47.4,26.996
47.415,26.555
47.43,26.58
47.445,26.733
47.46,26.236
47.475,26.616
47.49,26.731
47.505,26.808
47.52,26.976
47.535,26.695
47.55,26.52
47.565,26.421
47.58,26.429
47.595,26.795
47.61,26.999
47.625,26.631
47.64,26.413
47.655,26.502
47.67,26.724
47.685,26.422
47.7,25.905
47.715,26.263
47.73,26.183
47.745,26.592
47.76,26.81
47.775,26.321
47.79,26.384
47.805,26.307
47.82,26.456
47.835,26.641
47.85,26.431
47.865,26.563
47.88,26.514
47.895,26.222
47.91,25.926
47.925,26.155
47.94,26.685
47.955,26.379
47.97,26.432
47.985,26.514
48,26.359
48.015,26.304
48.03,26.174
48.045,26.203
48.06,26.383
48.075,25.658
48.09,25.787
48.105,26.597
48.12,25.851
48.135,25.779
48.15,26.205
48.165,26.059
48.18,26.359
48.195,26.459
48.21,26.33
48.225,26.338
48.24,26.391
48.255,26.544
48.27,26.364
48.285,26.15
48.3,26.495
48.315,26.023
48.33,26.288
48.345,27.065
48.36,27.116
48.375,26.713
48.39,26.249
48.405,26.091
48.42,25.869
48.435,26.066
48.45,26.594
48.465,26.261
48.48,26.18
48.495,26.794
48.51,26.865
48.525,26.358
48.54,26.332
48.555,26.096
48.57,26.179
48.585,26.396
48.6,26.027
48.615,25.934
48.63,26.162
48.645,26.284
48.66,26.198
48.675,26.43
48.69,26.542
48.705,26.197
48.72,25.869
48.735,25.6
48.75,25.903
48.765,26.329
48.78,26.422
48.795,26.646
48.81,27.115
48.825,26.696
48.84,26.666
48.855,26.544
48.87,26.727
48.885,26.42
48.9,26.323
48.915,26.411
48.93,25.86
48.945,25.652
48.96,25.827
48.975,25.89
48.99,26.173
49.005,26.481
49.02,26.439
49.035,26.876
49.05,26.573
49.065,26.219
49.08,26.036
49.095,26.138
49.11,26.335
49.125,26.549
49.14,26.044
49.155,25.607
49.17,26.556
49.185,26.34
49.2,26.639
49.215,26.706
49.23,26.365
49.245,26.307
49.26,26.322
49.275,26.447
49.29,25.999
49.305,25.762
49.32,26.138
49.335,26.629
49.35,26.443
49.365,26.355
49.38,26.517
49.395,26.767
49.41,26.551
49.425,26.102
49.44,26.4
49.455,26.67
49.47,26.537
49.485,26.434
49.5,26.161
49.515,25.984
49.53,26.2
49.545,26.559
49.56,26.463
49.575,26.139
49.59,26.244
49.605,26.069
49.62,25.641
49.635,26.312
49.65,26.501
49.665,25.897
49.68,25.8
49.695,26.102
49.71,26.206
49.725,26.7
49.74,26.593
49.755,26.262
49.77,26.102
49.785,26.307
49.8,26.399
49.815,26.009
49.83,25.581
49.845,25.825
49.86,25.939
49.875,26.204
49.89,26.325
49.905,26.45
49.92,26.51
49.935,26.422
49.95,26.49
49.965,26.632
49.98,26.242
49.995,26.527
50.01,26.193
50.025,26.349
50.04,26.376
50.055,25.958
50.07,25.817
50.085,25.825
50.1,25.993
50.115,26.633
50.13,26.427
50.145,26.262
50.16,26.373
50.175,26.27
50.19,26.353
50.205,26.733
50.22,27.048
50.235,26.643
50.25,26.324
50.265,25.942
50.28,25.645
50.295,25.738
50.31,25.706
50.325,26.006
50.34,26.205
50.355,26.296
50.37,26.236
50.385,25.97
50.4,26.237
50.415,26.633
50.43,26.691
50.445,26.261
50.46,25.878
50.475,25.783
50.49,25.893
50.505,26.284
50.52,26.354
50.535,25.969
50.55,26.165
50.565,26.305
50.58,26.171
50.595,26.203
50.61,26.143
50.625,26.268
50.64,26.261
50.655,25.79
50.67,25.96
50.685,26.25
50.7,26.215
50.715,26.357
50.73,26.412
50.745,26.34
50.76,26.319
50.775,26.22
50.79,26.831
50.805,26.211
50.82,25.901
50.835,26.061
50.85,25.918
50.865,26.322
50.88,26.178
50.895,26.155
50.91,26.309
50.925,26.51
50.94,26.266
50.955,25.702
50.97,25.906
50.985,26.303
51,26.765
51.015,26.81
51.03,26.384
51.045,25.845
51.06,25.745
51.075,26.039
51.09,25.989
51.105,26.014
51.12,25.584
51.135,26.002
51.15,26.169
51.165,25.909
51.18,26.076
51.195,26.208
51.21,26.133
51.225,26.225
51.24,26.352
51.255,25.959
51.27,25.747
51.285,26.282
51.3,26.354
51.315,25.437
51.33,25.876
51.345,26.168
51.36,25.427
51.375,25.826
51.39,25.99
51.405,26.169
51.42,26.09
51.435,25.74
51.45,25.859
51.465,25.711
51.48,25.894
51.495,26.031
51.51,26.032
51.525,26.025
51.54,26.758
51.555,26.921
51.57,26.339
51.585,26.344
51.6,26.296
51.615,26.194
51.63,26.05
51.645,26.435
51.66,26.162
51.675,26.303
51.69,26.297
51.705,26.025
51.72,26.132
51.735,25.913
51.75,25.735
51.765,26.148
51.78,26.394
51.795,26.181
51.81,26.291
51.825,26.129
51.84,25.924
51.855,26.353
51.87,26.441
51.885,26.206
51.9,26.182
51.915,26.083
51.93,25.983
51.945,26.041
51.96,25.851
51.975,26.187
51.99,26.429
52.005,25.921
52.02,26.137
52.035,26.128
52.05,25.72
52.065,25.542
52.08,25.953
52.095,25.715
52.11,26.167
52.125,26.959
52.14,26.63
52.155,26.345
52.17,25.996
52.185,25.709
52.2,25.752
52.215,26.06
52.23,25.972
52.245,26.264
52.26,26.222
52.275,25.782
52.29,26.121
52.305,26.148
52.32,25.901
52.335,25.982
52.35,25.72
52.365,25.612
52.38,25.639
52.395,26.101
52.41,26.619
52.425,26.041
52.44,25.507
52.455,25.637
52.47,25.772
52.485,25.961
52.5,26.648
52.515,26.717
52.53,26.101
52.545,25.893
52.56,25.911
52.575,26.353
52.59,26.068
52.605,26.275
52.62,26.25
52.635,26.359
52.65,26.096
52.665,25.892
52.68,25.994
52.695,26.869
52.71,26.889
52.725,26.305
52.74,26.204
52.755,26.486
52.77,26.195
52.785,26.028
52.8,26.727
52.815,26.811
52.83,26.39
52.845,26.487
52.86,26.033
52.875,25.746
52.89,25.748
52.905,25.893
52.92,25.687
52.935,25.905
52.95,26.292
52.965,26.215
52.98,26.619
52.995,26.714
53.01,25.756
53.025,26.527
53.04,26.719
53.055,26.519
53.07,25.809
53.085,25.839
53.1,26.135
53.115,26.573
53.13,26.556
53.145,26.245
53.16,26.427
53.175,26.576
53.19,26.923
53.205,26.507
53.22,25.995
53.235,26.105
53.25,26.3
53.265,25.815
53.28,25.594
53.295,25.889
53.31,26.263
53.325,26.296
53.34,25.954
53.355,26.224
53.37,26.172
53.385,26.116
53.4,25.952
53.415,26.175
53.43,26.252
53.445,26.291
53.46,26.315
53.475,26.614
53.49,26.405
53.505,26.445
53.52,26.462
53.535,26.545
53.55,26.708
53.565,26.503
53.58,26.378
53.595,26.029
53.61,25.799
53.625,26.016
53.64,25.934
53.655,26.15
53.67,26.178
53.685,25.809
53.7,25.371
53.715,25.719
53.73,26.376
53.745,26.037
53.76,25.827
53.775,26.633
53.79,26.511
53.805,25.583
53.82,26.063
53.835,25.916
53.85,25.587
53.865,25.892
53.88,26.225
53.895,26.029
53.91,26.31
53.925,26.24
53.94,26.115
53.955,25.925
53.97,25.824
53.985,25.847
54,25.798
54.015,25.918
54.03,25.982
54.045,26.617
54.06,26.466
54.075,26.321
54.09,26.483
54.105,26.024
54.12,25.984
54.135,26.19
54.15,25.929
54.165,26.018
54.18,26.389
54.195,26.702
54.21,26.751
54.225,26.398
54.24,26.431
54.255,26.279
54.27,26.053
54.285,25.9
54.3,26.266
54.315,26.727
54.33,26.316
54.345,25.848
54.36,26.058
54.375,25.982
54.39,25.896
54.405,26.197
54.42,26.368
54.435,26.234
54.45,26.547
54.465,26.149
54.48,26.023
54.495,26.005
54.51,26.249
54.525,26.146
54.54,25.52
54.555,26.047
54.57,25.963
54.585,25.909
54.6,25.913
54.615,26.145
54.63,26.516
54.645,26.549
54.66,26.323
54.675,26.197
54.69,25.998
54.705,26.204
54.72,25.932
54.735,25.843
54.75,26.101
54.765,26.316
54.78,26.326
54.795,26.004
54.81,26.077
54.825,25.661
54.84,25.629
54.855,25.887
54.87,26.15
54.885,26.088
54.9,25.997
54.915,26.162
54.93,25.514
54.945,25.321
54.96,25.946
54.975,26.169
54.99,26.283
55.005,25.897
55.02,25.277
55.035,25.432
55.05,26.079
55.065,26.013
55.08,26.131
55.095,26.251
55.11,25.733
55.125,25.653
55.14,25.948
55.155,26.236
55.17,25.46
55.185,25.738
55.2,26.237
55.215,26
55.23,25.526
55.245,25.664
55.26,25.874
55.275,25.885
55.29,26.263
55.305,26.686
55.32,26.493
55.335,26.071
55.35,26.047
55.365,26.001
55.38,25.885
55.395,26.285
55.41,26.012
55.425,25.87
55.44,26.189
55.455,26.065
55.47,26.04
55.485,26.025
55.5,26.152
55.515,26.247
55.53,26.271
55.545,26.361
55.56,26.093
55.575,26.281
55.59,26.082
55.605,25.781
55.62,25.949
55.635,25.839
55.65,26.189
55.665,26.417
55.68,26.229
55.695,25.964
55.71,25.767
55.725,26.056
55.74,26.053
55.755,26.276
55.77,26.061
55.785,25.433
55.8,25.804
55.815,26.019
55.83,26.174
55.845,26.229
55.86,26.21
55.875,25.665
55.89,25.411
55.905,25.527
55.92,25.611
55.935,26.014
55.95,26.563
55.965,26.634
55.98,26.117
55.995,26.057
56.01,26.275
56.025,26.446
56.04,26.511
56.055,26.298
56.07,25.99
56.085,26.008
56.1,26.185
56.115,26.72
56.13,26.618
56.145,26.648
56.16,26.596
56.175,26.25
56.19,26.3
56.205,26.199
56.22,25.988
56.235,26.266
56.25,26.189
56.265,26.329
56.28,26.331
56.295,26.559
56.31,26.742
56.325,26.751
56.34,26.002
56.355,26.035
56.37,26.354
56.385,26.757
56.4,26.818
56.415,26.366
56.43,26.323
56.445,26.19
56.46,26.239
56.475,26.361
56.49,25.886
56.505,25.515
56.52,26.346
56.535,26.662
56.55,26.209
56.565,26.177
56.58,26.321
56.595,26.1
56.61,26.214
56.625,26.273
56.64,26.442
56.655,26.664
56.67,26.521
56.685,26.004
56.7,26.009
56.715,25.771
56.73,25.919
56.745,26.38
56.76,26.24
56.775,26.076
56.79,26.402
56.805,26.475
56.82,26.222
56.835,26.773
56.85,26.704
56.865,26.204
56.88,26.622
56.895,26.67
56.91,26.338
56.925,26.104
56.94,26.238
56.955,26.188
56.97,26.336
56.985,26.532
57,26.386
57.015,26.532
57.03,26.034
57.045,26.482
57.06,26.375
57.075,26.326
57.09,25.902
57.105,25.796
57.12,26.488
57.135,26.207
57.15,26.418
57.165,26.148
57.18,26.142
57.195,25.933
57.21,26.457
57.225,26.902
57.24,26.403
57.255,26.173
57.27,26.448
57.285,26.549
57.3,26.571
57.315,25.899
57.33,25.982
57.345,26.138
57.36,26.034
57.375,26.307
57.39,26.624
57.405,26.476
57.42,26.228
57.435,26.608
57.45,26.541
57.465,26.762
57.48,26.317
57.495,25.786
57.51,26.303
57.525,26.37
57.54,26.025
57.555,26.094
57.57,25.967
57.585,26.192
57.6,25.808
57.615,25.481
57.63,25.807
57.645,25.714
57.66,25.875
57.675,26.178
57.69,26.601
57.705,26.509
57.72,25.781
57.735,26.769
57.75,27.453
57.765,26.211
57.78,25.99
57.795,26.341
57.81,26.178
57.825,26.109
57.84,26.503
57.855,26.508
57.87,25.879
57.885,25.818
57.9,25.858
57.915,26.318
57.93,26.098
57.945,26.046
57.96,26.245
57.975,25.935
57.99,26.195
58.005,26.307
58.02,25.426
58.035,25.371
58.05,25.944
58.065,26.496
58.08,25.858
58.095,25.519
58.11,25.877
58.125,25.874
58.14,25.7
58.155,25.43
58.17,25.812
58.185,25.777
58.2,25.77
58.215,25.783
58.23,25.838
58.245,26.042
58.26,26.176
58.275,25.829
58.29,25.849
58.305,26.356
58.32,26.184
58.335,25.509
58.35,25.617
58.365,25.749
58.38,26.143
58.395,25.988
58.41,26.195
58.425,25.604
58.44,25.206
58.455,25.344
58.47,25.402
58.485,25.481
58.5,25.601
58.515,25.215
58.53,25.045
58.545,25.951
58.56,25.668
58.575,25.26
58.59,25.786
58.605,26.556
58.62,26.123
58.635,26.033
58.65,25.782
58.665,25.664
58.68,25.572
58.695,25.745
58.71,25.435
58.725,25.325
58.74,25.444
58.755,25.724
58.77,26.1
58.785,26.028
58.8,25.937
58.815,25.936
58.83,25.657
58.845,25.762
58.86,25.217
58.875,25.009
58.89,25.26
58.905,25.161
58.92,25.388
58.935,25.533
58.95,25.537
58.965,25.631
58.98,25.862
58.995,26.036
59.01,25.966
59.025,25.661
59.04,25.516
59.055,25.635
59.07,25.492
59.085,25.345
59.1,25.58
59.115,25.832
59.13,26.029
59.145,25.977
59.16,25.657
59.175,25.03
59.19,25.566
59.205,25.4
59.22,25.501
59.235,25.701
59.25,26.069
59.265,25.907
59.28,25.526
59.295,25.583
59.31,25.481
59.325,25.169
59.34,25.047
59.355,25.476
59.37,25.746
59.385,26.108
59.4,25.815
59.415,25.712
59.43,25.573
59.445,25.266
59.46,25.804
59.475,26.549
59.49,25.669
59.505,25.516
59.52,25.845
59.535,25.392
59.55,24.837
59.565,25.17
59.58,25.291
59.595,25.224
59.61,25.192
59.625,24.77
59.64,25.079
59.655,25.617
59.67,25.495
59.685,25.358
59.7,25.187
59.715,25.468
59.73,25.809
59.745,25.545
59.76,25.292
59.775,25.094
59.79,25.162
59.805,25.573
59.82,25.326
59.835,25.185
59.85,25.444
59.865,25.453
59.88,25.426
59.895,25.683
59.91,25.845
59.925,25.823
59.94,25.573
59.955,25.069
59.97,25.061
59.985,25.039
60,25.406
60.015,25.886
60.03,25.836
60.045,25.93
60.06,25.609
60.075,25.308
60.09,25.615
60.105,25.431
60.12,25.164
60.135,25.344
60.15,25.235
60.165,25.4
60.18,26.01
60.195,25.882
60.21,25.761
60.225,25.671
60.24,25.301
60.255,25.244
60.27,24.952
60.285,25.147
60.3,25.331
60.315,25.472
60.33,25.749
60.345,25.647
60.36,25.457
60.375,25.379
60.39,25.824
60.405,25.743
60.42,25.52
60.435,25.449
60.45,24.809
60.465,25.249
60.48,25.639
60.495,25.346
60.51,25.705
60.525,25.628
60.54,25.837
60.555,25.717
60.57,25.674
60.585,26.004
60.6,25.872
60.615,25.81
60.63,25.166
60.645,25.063
60.66,25.318
60.675,25.526
60.69,25.592
60.705,25.44
60.72,26.08
60.735,25.958
60.75,25.549
60.765,25.965
60.78,25.557
60.795,25.634
60.81,25.375
60.825,25.298
60.84,25.649
60.855,25.789
60.87,25.794
60.885,25.557
60.9,25.348
60.915,25.928
60.93,25.842
60.945,25.661
60.96,26.009
60.975,25.783
60.99,25.335
61.005,25.545
61.02,25.808
61.035,25.68
61.05,25.651
61.065,25.75
61.08,25.935
61.095,26.122
61.11,26.051
61.125,25.757
61.14,25.91
61.155,26.493
61.17,26.405
61.185,26.011
61.2,25.846
61.215,25.678
61.23,25.464
61.245,25.819
61.26,25.819
61.275,25.862
61.29,25.234
61.305,24.886
61.32,25.384
61.335,25.855
61.35,25.608
61.365,25.509
61.38,25.465
61.395,25.208
61.41,25.298
61.425,25.539
61.44,25.447
61.455,25.224
61.47,25.362
61.485,25.565
61.5,25.956
61.515,25.857
61.53,25.613
61.545,25.442
61.56,25.527
61.575,26.073
61.59,25.699
61.605,25.183
61.62,25.346
61.635,25.9
61.65,25.913
61.665,26.012
61.68,26.175
61.695,26.111
61.71,26.055
61.725,25.588
61.74,25.511
61.755,26.014
61.77,26.644
61.785,25.906
61.8,25.512
61.815,26.003
61.83,26.437
61.845,26.369
61.86,26.162
61.875,26.598
61.89,26.987
61.905,26.556
61.92,27.002
61.935,27.54
61.95,27.571
61.965,27.224
61.98,27.396
61.995,27.301
62.01,27.201
62.025,26.775
62.04,27.089
62.055,27.462
62.07,27.897
62.085,28.182
62.1,27.62
62.115,27.154
62.13,27.818
62.145,27.961
62.16,27.473
62.175,27.647
62.19,27.611
62.205,27.797
62.22,28.025
62.235,28.211
62.25,28.204
62.265,28.134
62.28,28.1
62.295,28.399
62.31,28.21
62.325,28.069
62.34,28.709
62.355,28.573
62.37,27.911
62.385,28.044
62.4,28.134
62.415,28.28
62.43,28.323
62.445,28.238
62.46,27.792
62.475,27.832
62.49,27.981
62.505,27.956
62.52,27.524
62.535,27.602
62.55,28.16
62.565,28.469
62.58,27.819
62.595,27.149
62.61,26.969
62.625,27.304
62.64,27.261
62.655,27.237
62.67,26.936
62.685,26.778
62.7,26.811
62.715,26.909
62.73,27.2
62.745,27.035
62.76,27.111
62.775,27.524
62.79,27.64
62.805,27.284
62.82,26.885
62.835,26.452
62.85,26.436
62.865,26.525
62.88,26.608
62.895,26.699
62.91,26.517
62.925,26.839
62.94,26.926
62.955,26.921
62.97,26.928
62.985,26.308
63,26.238
63.015,25.994
63.03,25.828
63.045,26.133
63.06,26.202
63.075,25.746
63.09,25.611
63.105,25.38
63.12,25.627
63.135,25.977
63.15,25.513
63.165,25.965
63.18,26.16
63.195,26.142
63.21,25.797
63.225,25.675
63.24,25.868
63.255,26.215
63.27,26.023
63.285,25.825
63.3,26.414
63.315,26.644
63.33,26.39
63.345,25.903
63.36,25.343
63.375,25.103
63.39,25.795
63.405,26.147
63.42,25.721
63.435,25.126
63.45,25.098
63.465,25.401
63.48,25.507
63.495,25.392
63.51,25.058
63.525,25.429
63.54,25.645
63.555,25.806
63.57,25.969
63.585,25.97
63.6,25.515
63.615,25.45
63.63,25.613
63.645,25.954
63.66,25.822
63.675,25.631
63.69,25.525
63.705,25.359
63.72,25.185
63.735,25.739
63.75,26.055
63.765,25.263
63.78,24.976
63.795,25.324
63.81,25.436
63.825,25.253
63.84,25.082
63.855,24.905
63.87,25.068
63.885,25.417
63.9,25.799
63.915,24.764
63.93,24.993
63.945,25.263
63.96,25.304
63.975,25.393
63.99,24.868
64.005,24.598
64.02,25.133
64.035,25.055
64.05,24.615
64.065,24.948
64.08,25.381
64.095,25.342
64.11,25.53
64.125,25.407
64.14,25.3
64.155,24.81
64.17,24.987
64.185,25.273
64.2,24.839
64.215,24.703
64.23,24.728
64.245,24.75
64.26,25.063
64.275,25.284
64.29,24.886
64.305,25.099
64.32,25.225
64.335,25.389
64.35,25.029
64.365,24.839
64.38,25.015
64.395,25.051
64.41,25.014
64.425,25.097
64.44,24.858
64.455,24.949
64.47,24.825
64.485,24.643
64.5,25.064
64.515,24.961
64.53,24.664
64.545,24.726
64.56,25.14
64.575,25.053
64.59,25.118
64.605,25.212
64.62,25.419
64.635,24.906
64.65,24.531
64.665,25.197
64.68,25.452
64.695,24.948
64.71,25.118
64.725,25.08
64.74,25.092
64.755,24.885
64.77,24.932
64.785,25.08
64.8,25.203
64.815,24.798
64.83,24.331
64.845,24.388
64.86,24.748
64.875,24.732
64.89,24.903
64.905,24.819
64.92,25.046
64.935,25.226
64.95,24.477
64.965,24.938
64.98,25.575
64.995,25.542
65.01,25.044
65.025,24.244
65.04,24.357
65.055,24.886
65.07,24.974
65.085,24.601
65.1,24.662
65.115,25.225
65.13,25.644
65.145,25.252
65.16,24.748
65.175,25.013
65.19,25.203
65.205,25.167
65.22,25.316
65.235,24.802
65.25,24.618
65.265,24.927
65.28,25.303
65.295,25.095
65.31,24.734
65.325,24.918
65.34,25.297
65.355,24.654
65.37,24.507
65.385,24.934
65.4,25.091
65.415,25.311
65.43,25.116
65.445,24.681
65.46,24.533
65.475,25.113
65.49,25.426
65.505,25.291
65.52,25.003
65.535,24.668
65.55,24.372
65.565,24.078
65.58,24.399
65.595,25.347
65.61,25.271
65.625,24.819
65.64,25.198
65.655,25.094
65.67,25.157
65.685,25.021
65.7,24.9
65.715,24.613
65.73,25.108
65.745,25.343
65.76,25.05
65.775,25.341
65.79,24.885
65.805,24.734
65.82,25.023
65.835,24.774
65.85,24.492
65.865,24.878
65.88,25.23
65.895,25.193
65.91,25.18
65.925,24.657
65.94,24.964
65.955,24.899
65.97,24.491
65.985,24.94
66,25.099
66.015,24.642
66.03,24.897
66.045,24.469
66.06,24.759
66.075,25.214
66.09,24.772
66.105,24.619
66.12,24.651
66.135,24.663
66.15,24.861
66.165,24.547
66.18,23.891
66.195,24.69
66.21,24.918
66.225,25.142
66.24,25.297
66.255,25.221
66.27,24.888
66.285,25.078
66.3,25.061
66.315,24.824
66.33,24.547
66.345,24.284
66.36,24.794
66.375,24.692
66.39,24.839
66.405,24.927
66.42,24.382
66.435,24.482
66.45,24.784
66.465,24.808
66.48,25.502
66.495,25.257
66.51,24.779
66.525,24.444
66.54,24.575
66.555,24.745
66.57,25.311
66.585,24.903
66.6,24.692
66.615,24.327
66.63,24.263
66.645,24.507
66.66,24.803
66.675,24.981
66.69,25.06
66.705,24.578
66.72,24.567
66.735,24.674
66.75,24.621
66.765,24.805
66.78,24.899
66.795,24.806
66.81,24.992
66.825,24.756
66.84,24.667
66.855,24.979
66.87,24.999
66.885,24.896
66.9,24.943
66.915,25.055
66.93,25.162
66.945,24.925
66.96,24.618
66.975,24.419
66.99,24.378
67.005,24.747
67.02,24.846
67.035,24.49
67.05,24.495
67.065,24.648
67.08,24.966
67.095,24.789
67.11,24.629
67.125,24.935
67.14,25.125
67.155,24.878
67.17,24.948
67.185,24.913
67.2,24.66
67.215,24.446
67.23,24.41
67.245,24.379
67.26,24.698
67.275,24.761
67.29,24.63
67.305,24.708
67.32,24.861
67.335,24.738
67.35,24.701
67.365,24.598
67.38,24.78
67.395,24.99
67.41,24.942
67.425,25.051
67.44,24.782
67.455,24.483
67.47,24.855
67.485,25.401
67.5,24.737
67.515,24.808
67.53,24.503
67.545,24.297
67.56,24.51
67.575,24.364
67.59,24.959
67.605,25.07
67.62,25.11
67.635,24.869
67.65,24.368
67.665,24.271
67.68,24.649
67.695,24.919
67.71,24.574
67.725,24.78
67.74,25.127
67.755,24.95
67.77,24.73
67.785,24.927
67.8,24.849
67.815,24.175
67.83,24.102
67.845,24.302
67.86,24.943
67.875,24.975
67.89,24.798
67.905,24.918
67.92,25.256
67.935,25.189
67.95,24.429
67.965,24.247
67.98,24.191
67.995,24.397
68.01,24.603
68.025,24.324
68.04,24.3
68.055,24.346
68.07,24.519
68.085,24.392
68.1,24.525
68.115,24.973
68.13,25.029
68.145,24.48
68.16,24.306
68.175,24.323
68.19,24.495
68.205,24.64
68.22,24.773
68.235,25.005
68.25,24.728
68.265,24.344
68.28,24.239
68.295,24.275
68.31,24.452
68.325,24.607
68.34,24.262
68.355,24.176
68.37,24.588
68.385,24.159
68.4,24.191
68.415,24.466
68.43,24.279
68.445,24.291
68.46,24.335
68.475,24.777
68.49,24.777
68.505,24.641
68.52,24.446
68.535,24.274
68.55,24.321
68.565,23.988
68.58,24.267
68.595,24.497
68.61,24.783
68.625,24.529
68.64,24.535
68.655,25.029
68.67,24.632
68.685,24.168
68.7,24.429
68.715,24.673
68.73,24.579
68.745,24.523
68.76,24.752
68.775,24.755
68.79,24.343
68.805,24.179
68.82,24.547
68.835,24.867
68.85,24.769
68.865,24.522
68.88,24.861
68.895,24.769
68.91,25.038
68.925,25.02
68.94,24.804
68.955,24.928
68.97,24.419
68.985,24.659
69,24.774
69.015,24.333
69.03,24.827
69.045,24.9
69.06,24.081
69.075,24.287
69.09,24.775
69.105,24.661
69.12,24.723
69.135,24.432
69.15,24.723
69.165,24.56
69.18,24.399
69.195,24.683
69.21,24.682
69.225,25.044
69.24,25.209
69.255,25.154
69.27,24.799
69.285,24.803
69.3,24.577
69.315,24.415
69.33,24.74
69.345,24.866
69.36,24.38
69.375,24.231
69.39,24.078
69.405,24.667
69.42,25.002
69.435,24.429
69.45,24.428
69.465,24.829
69.48,24.565
69.495,24.644
69.51,25.031
69.525,24.45
69.54,24.654
69.555,24.603
69.57,25.118
69.585,25.074
69.6,24.954
69.615,24.822
69.63,24.336
69.645,24.26
69.66,24.532
69.675,24.425
69.69,24.199
69.705,24.71
69.72,25.079
69.735,24.634
69.75,24.468
69.765,24.556
69.78,24.674
69.795,24.906
69.81,24.899
69.825,24.964
69.84,24.751
69.855,24.608
69.87,25.027
69.885,24.505
69.9,24.34
69.915,24.624
69.93,24.937
69.945,24.986
69.96,24.719
69.975,24.501
69.99,24.821
70.005,24.177
70.02,24.305
70.035,24.956
70.05,24.83
70.065,24.719
70.08,24.469
70.095,24.546
70.11,25.204
70.125,25.105
70.14,24.615
70.155,24.854
70.17,25.07
70.185,24.977
70.2,24.664
70.215,24.243
70.23,24.562
70.245,24.698
70.26,24.369
70.275,24.454
70.29,24.4
70.305,24.486
70.32,24.701
70.335,24.493
70.35,24.172
70.365,24.24
70.38,24.304
70.395,24.287
70.41,24.464
70.425,24.997
70.44,24.684
70.455,24.255
70.47,24.284
70.485,24.613
70.5,24.404
70.515,24.515
70.53,24.552
70.545,24.726
70.56,24.71
70.575,24.539
70.59,24.984
70.605,25.264
70.62,24.712
70.635,24.551
70.65,24.657
70.665,24.417
70.68,24.419
70.695,24.373
70.71,24.471
70.725,24.377
70.74,24.292
70.755,24.469
70.77,23.956
70.785,23.872
70.8,24.323
70.815,24.067
70.83,24.004
70.845,24.196
70.86,24.516
70.875,25.116
70.89,24.999
70.905,24.527
70.92,24.691
70.935,24.795
70.95,24.608
70.965,24.363
70.98,24.213
70.995,24.389
71.01,24.567
71.025,24.667
71.04,24.558
71.055,24.033
71.07,24.17
71.085,24.003
71.1,23.914
71.115,24.561
71.13,25.051
71.145,25.024
71.16,24.874
71.175,24.836
71.19,24.862
71.205,24.859
71.22,24.784
71.235,24.804
71.25,24.984
71.265,24.672
71.28,24.915
71.295,24.945
71.31,24.714
71.325,24.568
71.34,24.678
71.355,25.232
71.37,24.939
71.385,24.364
71.4,24.406
71.415,24.837
71.43,24.429
71.445,24.243
71.46,25.003
71.475,25.219
71.49,24.536
71.505,24.375
71.52,24.383
71.535,24.512
71.55,24.875
71.565,24.738
71.58,25.045
71.595,24.376
71.61,23.818
71.625,24.192
71.64,24.504
71.655,24.664
71.67,24.43
71.685,24.648
71.7,25.054
71.715,24.547
71.73,24.399
71.745,24.306
71.76,24.176
71.775,23.803
71.79,23.96
71.805,24.107
71.82,24.507
71.835,24.906
71.85,24.551
71.865,24.415
71.88,24.504
71.895,24.651
71.91,24.155
71.925,24.246
71.94,24.369
71.955,24.546
71.97,24.312
71.985,24.208
72,24.399
72.015,24.198
72.03,24.304
72.045,24.629
72.06,24.566
72.075,24.738
72.09,24.511
72.105,23.652
72.12,23.735
72.135,24.674
72.15,24.915
72.165,24.686
72.18,24.425
72.195,24.558
72.21,24.689
72.225,24.547
72.24,24.423
72.255,24.768
72.27,24.626
72.285,24.648
72.3,24.881
72.315,24.926
72.33,24.321
72.345,24.694
72.36,24.454
72.375,24.412
72.39,24.757
72.405,24.444
72.42,24.432
72.435,24.69
72.45,24.614
72.465,24.564
72.48,24.391
72.495,24.718
72.51,24.921
72.525,24.518
72.54,24.695
72.555,24.98
72.57,24.847
72.585,24.343
72.6,24.291
72.615,24.781
72.63,24.63
72.645,24.369
72.66,24.249
72.675,24.548
72.69,24.221
72.705,24.301
72.72,24.956
72.735,24.858
72.75,24.811
72.765,24.816
72.78,24.142
72.795,23.908
72.81,24.307
72.825,24.521
72.84,24.434
72.855,24.333
72.87,24.285
72.885,24.246
72.9,24.189
72.915,24.275
72.93,24.65
72.945,24.307
72.96,24.563
72.975,24.324
72.99,24.022
73.005,24.062
73.02,24.087
73.035,24.612
73.05,24.605
73.065,24.767
73.08,24.918
73.095,24.738
73.11,24.915
73.125,24.651
73.14,24.581
73.155,24.434
73.17,24.544
73.185,24.781
73.2,24.743
73.215,24.42
73.23,24.21
73.245,23.756
73.26,23.944
73.275,24.5
73.29,24.622
73.305,24.601
73.32,24.877
73.335,24.48
73.35,24.345
73.365,24.345
73.38,24.232
73.395,24.844
73.41,24.924
73.425,24.557
73.44,24.639
73.455,24.52
73.47,24.507
73.485,24.751
73.5,24.75
73.515,24.527
73.53,24.169
73.545,24.365
73.56,24.702
73.575,24.406
73.59,24.477
73.605,24.496
73.62,24.22
73.635,24.404
73.65,24.686
73.665,24.379
73.68,24.776
73.695,24.774
73.71,24.752
73.725,24.579
73.74,24.696
73.755,24.847
73.77,24.768
73.785,24.347
73.8,24.516
73.815,24.247
73.83,24.253
73.845,24.539
73.86,24.321
73.875,24.463
73.89,24.971
73.905,25.01
73.92,24.65
73.935,24.604
73.95,24.327
73.965,24.432
73.98,24.436
73.995,24.934
74.01,24.742
74.025,24.377
74.04,24.301
74.055,24.624
74.07,24.804
74.085,24.543
74.1,23.997
74.115,23.985
74.13,24.537
74.145,24.282
74.16,24.311
74.175,24.706
74.19,24.635
74.205,24.357
74.22,24.53
74.235,25.139
74.25,24.884
74.265,24.42
74.28,24.619
74.295,24.705
74.31,24.122
74.325,24.285
74.34,24.742
74.355,24.324
74.37,24.268
74.385,24.783
74.4,24.092
74.415,24.659
74.43,25.172
74.445,24.591
74.46,24.37
74.475,24.588
74.49,24.551
74.505,24.655
74.52,24.719
74.535,25.073
74.55,24.521
74.565,24.644
74.58,24.788
74.595,24.434
74.61,24.495
74.625,24.687
74.64,24.585
74.655,24.798
74.67,24.297
74.685,24.026
74.7,24.586
74.715,24.825
74.73,24.442
74.745,24.074
74.76,24.26
74.775,24.654
74.79,24.922
74.805,24.459
74.82,24.254
74.835,24.86
74.85,24.947
74.865,24.449
74.88,24.587
74.895,24.289
74.91,24.156
74.925,24.369
74.94,24.084
74.955,23.628
74.97,23.944
74.985,24.156
75,23.988
75.015,23.731
75.03,23.906
75.045,23.686
75.06,23.3
75.075,23.26
75.09,23.127
75.105,23.729
75.12,23.561
75.135,24.162
75.15,23.862
75.165,23.838
75.18,23.491
75.195,22.525
75.21,22.459
75.225,21.944
75.24,23.08
75.255,23.381
75.27,20.84
75.285,21.441
75.3,22.724
75.315,22.2
75.33,20.616
75.345,27.13
