24.99,0
25.005,0.571
25.02,-1.146
25.035,-0.863
25.05,-0.379
25.065,-0.571
25.08,-0.21
25.095,0.07
25.11,-0.364
25.125,-0.854
25.14,-0.854
25.155,0.024
25.17,0.516
25.185,0.74
25.2,-0.326
25.215,-0.784
25.23,0.271
25.245,0.761
25.26,0.808
25.275,1.005
25.29,0.173
25.305,-0.632
25.32,-0.313
25.335,0.218
25.35,1.107
25.365,1.575
25.38,1.254
25.395,0.324
25.41,0.199
25.425,0.187
25.44,0.527
25.455,0.486
25.47,0.421
25.485,0.78
25.5,0.725
25.515,0.966
25.53,0.938
25.545,0.77
25.56,0.788
25.575,0.276
25.59,0.448
25.605,0.647
25.62,0.408
25.635,0.306
25.65,-0.074
25.665,-0.431
25.68,-0.71
25.695,0.065
25.71,0.359
25.725,0.623
25.74,0.147
25.755,-0.143
25.77,-0.028
25.785,0.541
25.8,0.502
25.815,0.543
25.83,0.029
25.845,0.448
25.86,0.132
25.875,-0.032
25.89,0.782
25.905,0.503
25.92,0.407
25.935,0.847
25.95,0.226
25.965,0.472
25.98,0.093
25.995,-0.299
26.01,0.068
26.025,-0.011
26.04,-0.469
26.055,0.155
26.07,0.696
26.085,-0.066
26.1,-0.785
26.115,-0.185
26.13,0.414
26.145,0.56
26.16,0.05
26.175,-0.146
26.19,-0.041
26.205,0.399
26.22,0.904
26.235,0.574
26.25,0.43
26.265,0.219
26.28,0.165
26.295,0.079
26.31,-0.108
26.325,-0.36
26.34,0.263
26.355,0.2
26.37,0.397
26.385,0.532
26.4,0.851
26.415,0.709
26.43,0.274
26.445,0.216
26.46,0.283
26.475,-0.85
26.49,-0.603
26.505,-0.144
26.52,0.091
26.535,0.116
26.55,0.366
26.565,0.488
26.58,0.307
26.595,0.349
26.61,0.562
26.625,0.473
26.64,-0.15
26.655,-0.136
26.67,0.537
26.685,0.544
26.7,0.079
26.715,-0.201
26.73,-0.358
26.745,0.027
26.76,0.187
26.775,0.436
26.79,0.751
26.805,1.022
26.82,0.514
26.835,-0.265
26.85,0.167
26.865,0.226
26.88,0.221
26.895,0.61
26.91,0.041
26.925,-0.345
26.94,-0.572
26.955,-0.349
26.97,0.066
26.985,-0.594
27,-0.821
27.015,-0.113
27.03,-0.131
27.045,0.032
27.06,-0.241
27.075,0.067
27.09,0.703
27.105,0.111
27.12,-0.139
27.135,-0.003
27.15,-0.244
27.165,-0.395
27.18,-0.08
27.195,0.242
27.21,0.152
27.225,0.321
27.24,0.409
27.255,0.377
27.27,0.025
27.285,-0.326
27.3,-0.31
27.315,0.048
27.33,-0.03
27.345,-0.155
27.36,0.273
27.375,0.436
27.39,0.346
27.405,0.738
27.42,0.646
27.435,0.276
27.45,0.066
27.465,0.339
27.48,0.278
27.495,0.194
27.51,0.24
27.525,0.539
27.54,0.484
27.555,0.104
27.57,-0.961
27.585,-0.084
27.6,0.497
27.615,0.401
27.63,-0.039
27.645,0.058
27.66,-0.72
27.675,-0.846
27.69,-0.407
27.705,0.331
27.72,0.392
27.735,0.255
27.75,0.365
27.765,0.211
27.78,-0.111
27.795,0.117
27.81,0.062
27.825,0.115
27.84,0
27.855,0.251
27.87,0.04
27.885,0.097
27.9,0.196
27.915,-0.449
27.93,-0.248
27.945,-0.73
27.96,-0.584
27.975,-0.495
27.99,-0.344
28.005,-0.228
28.02,-0.701
28.035,-0.404
28.05,0.236
28.065,0.167
28.08,-0.135
28.095,0.011
28.11,0.147
28.125,0.387
28.14,0.288
28.155,-0.045
28.17,-0.295
28.185,-0.355
28.2,-0.407
28.215,-0.577
28.23,-0.416
28.245,0.231
28.26,0.388
28.275,0.378
28.29,0.405
28.305,-0.137
28.32,0.069
28.335,-0.328
28.35,-0.144
28.365,-0.133
28.38,0.251
28.395,0.207
28.41,-0.089
28.425,-0.2
28.44,-0.308
28.455,-0.12
28.47,-0.496
28.485,-0.386
28.5,-0.117
28.515,0.01
28.53,0.073
28.545,-0.052
28.56,-0.762
28.575,-0.342
28.59,0.042
28.605,0.299
28.62,0.087
28.635,0.009
28.65,0.025
28.665,-0.263
28.68,-0.735
28.695,-0.206
28.71,0.095
28.725,0.485
28.74,-0.201
28.755,-0.464
28.77,-0.132
28.785,-0.132
28.8,0.019
28.815,0.52
28.83,-0.376
28.845,-0.504
28.86,-0.609
28.875,-0.687
28.89,-0.555
28.905,-0.81
28.92,-0.849
28.935,-0.485
28.95,0.312
28.965,0.71
28.98,0.304
28.995,0.231
29.01,-0.191
29.025,-0.261
29.04,-0.521
29.055,-0.379
29.07,-0.19
29.085,0.095
29.1,0.34
29.115,-0.159
29.13,0.092
29.145,0.22
29.16,0.135
29.175,0.042
29.19,-0.045
29.205,-0.36
29.22,0.014
29.235,0.015
29.25,-0.012
29.265,-0.498
29.28,-0.284
29.295,0.161
29.31,0.114
29.325,0.483
29.34,0.431
29.355,0.238
29.37,-0.035
29.385,-0.348
29.4,-0.492
29.415,0.037
29.43,0.394
29.445,0.402
29.46,0.44
29.475,0.058
29.49,0.095
29.505,0.065
29.52,0.392
29.535,0.738
29.55,0.487
29.565,0.045
29.58,-0.219
29.595,0.241
29.61,0.256
29.625,-0.181
29.64,-0.195
29.655,0.443
29.67,0.886
29.685,0.144
29.7,0.036
29.715,-0.355
29.73,0.172
29.745,0.063
29.76,0.51
29.775,0.294
29.79,0.208
29.805,0.809
29.82,0.902
29.835,0.356
29.85,0.121
29.865,0.105
29.88,0.366
29.895,0.32
29.91,0.065
29.925,-0.064
29.94,0.809
29.955,0.411
29.97,0.527
29.985,0.524
30,0.459
30.015,0.461
30.03,0.481
30.045,0.825
30.06,1.268
30.075,1.209
30.09,0.639
30.105,0.167
30.12,0.146
30.135,-0.137
30.15,0.391
30.165,0.632
30.18,0.71
30.195,0.802
30.21,0.305
30.225,0.311
30.24,0.439
30.255,0.453
30.27,0.67
30.285,0.575
30.3,0.342
30.315,0.513
30.33,0.947
30.345,0.753
30.36,0.05
30.375,0.262
30.39,0.519
30.405,0.348
30.42,0.438
30.435,0.285
30.45,0.256
30.465,0.311
30.48,0.062
30.495,0.346
30.51,0.211
30.525,0.348
30.54,0.467
30.555,0.429
30.57,0.247
30.585,-0.008
30.6,0.25
30.615,0.315
30.63,0.076
30.645,0.113
30.66,-0.267
30.675,0.136
30.69,0.539
30.705,-0.089
30.72,-0.21
30.735,0.413
30.75,0.688
30.765,0.11
30.78,0.278
30.795,0.448
30.81,0.375
30.825,0.573
30.84,0.691
30.855,-0.023
30.87,0.525
30.885,0.661
30.9,0.456
30.915,0.129
30.93,0.026
30.945,-0.016
30.96,-0.192
30.975,-0.849
30.99,-0.594
31.005,-0.123
31.02,0.46
31.035,0.105
31.05,0.182
31.065,0.204
31.08,-0.065
31.095,0.253
31.11,0.67
31.125,-0.202
31.14,-0.849
31.155,-0.629
31.17,-0.127
31.185,-0.329
31.2,-0.27
31.215,-0.248
31.23,0.103
31.245,0.008
31.26,-0.123
31.275,-0.253
31.29,-0.245
31.305,0.266
31.32,-0.114
31.335,-0.219
31.35,-0.205
31.365,-0.377
31.38,-0.197
31.395,-0.08
31.41,-0.278
31.425,0.018
31.44,0.349
31.455,0.411
31.47,-0.352
31.485,-0.434
31.5,-0.207
31.515,0.018
31.53,0.119
31.545,-0.156
31.56,0.094
31.575,-0.162
31.59,-0.542
31.605,-0.644
31.62,0.089
31.635,0.387
31.65,-0.246
31.665,-0.429
31.68,-0.616
31.695,-0.307
31.71,0.095
31.725,-0.247
31.74,-0.672
31.755,-0.591
31.77,-0.092
31.785,0.132
31.8,0.422
31.815,0.347
31.83,0.052
31.845,-0.095
31.86,0.303
31.875,-0.223
31.89,-0.397
31.905,-0.056
31.92,0.397
31.935,-0.272
31.95,-0.534
31.965,-0.13
31.98,-0.074
31.995,-0.26
32.01,-0.366
32.025,-0.453
32.04,-0.502
32.055,-0.241
32.07,0.26
32.085,0.175
32.1,-0.15
32.115,-0.326
32.13,-0.26
32.145,-0.099
32.16,-0.142
32.175,-0.329
32.19,-0.343
32.205,-0.397
32.22,-0.288
32.235,-0.198
32.25,-0.616
32.265,-0.063
32.28,-0.104
32.295,-0.414
32.31,-0.476
32.325,0.158
32.34,-0.029
32.355,-0.059
32.37,0.151
32.385,0.127
32.4,-0.101
32.415,-0.103
32.43,-0.262
32.445,-0.038
32.46,-0.077
32.475,-0.238
32.49,-0.166
32.505,0.256
32.52,-0.017
32.535,-0.177
32.55,0.08
32.565,-0.147
32.58,-0.289
32.595,-0.435
32.61,-0.363
32.625,0.016
32.64,0.156
32.655,-0.094
32.67,0.161
32.685,-0.31
32.7,-0.028
32.715,-0.125
32.73,-0.535
32.745,-0.847
32.76,-0.324
32.775,-0.177
32.79,-0.018
32.805,-0.174
32.82,-0.739
32.835,-0.532
32.85,-0.26
32.865,-0.201
32.88,-0.503
32.895,-0.343
32.91,0.153
32.925,-0.13
32.94,0.041
32.955,0.276
32.97,-0.032
32.985,-0.327
33,0.523
33.015,0.458
33.03,0.001
33.045,-0.568
33.06,-0.828
33.075,-0.308
33.09,-0.511
33.105,-0.413
33.12,-0.274
33.135,-0.137
33.15,-0.479
33.165,-0.321
33.18,-0.158
33.195,-0.135
33.21,-0.118
33.225,-0.239
33.24,-0.179
33.255,-0.292
33.27,-0.749
33.285,-0.474
33.3,0.123
33.315,0.38
33.33,-0.475
33.345,-0.649
33.36,0.105
33.375,0.438
33.39,0.263
33.405,-0.099
33.42,-0.098
33.435,-0.27
33.45,-0.115
33.465,0.044
33.48,-0.411
33.495,-0.048
33.51,0.244
33.525,0.076
33.54,0.248
33.555,0.413
33.57,-0.298
33.585,-0.141
33.6,-0.138
33.615,0.349
33.63,0.219
33.645,0.143
33.66,0.394
33.675,-0.814
33.69,-0.416
33.705,0.152
33.72,0.429
33.735,0.458
33.75,0.237
33.765,0.117
33.78,-0.355
33.795,-0.417
33.81,-0.088
33.825,0.034
33.84,-0.299
33.855,0.012
33.87,0.131
33.885,0.159
33.9,-0.545
33.915,-0.712
33.93,-0.71
33.945,-0.396
33.96,-0.101
33.975,-0.156
33.99,0.149
34.005,0.107
34.02,0.402
34.035,0.281
34.05,0.039
34.065,0.153
34.08,0.351
34.095,-0.244
34.11,-0.14
34.125,-0.259
34.14,0.112
34.155,0.309
34.17,-0.145
34.185,-0.056
34.2,0.327
34.215,0.163
34.23,-0.006
34.245,-0.195
34.26,-0.047
34.275,0.253
34.29,-0.033
34.305,0.052
34.32,0.442
34.335,0.438
34.35,0.346
34.365,0.834
34.38,0.696
34.395,0.385
34.41,0.614
34.425,0.791
34.44,0.4
34.455,0.392
34.47,0.814
34.485,1.382
34.5,1.017
34.515,1.1
34.53,0.981
34.545,0.597
34.56,0.715
34.575,1.162
34.59,0.808
34.605,0.502
34.62,0.369
34.635,0.853
34.65,0.832
34.665,1.113
34.68,1.264
34.695,1.404
34.71,1.063
34.725,1.028
34.74,1.026
34.755,1.229
34.77,1.359
34.785,1.265
34.8,1.573
34.815,1.652
34.83,1.803
34.845,1.808
34.86,1.521
34.875,1.897
34.89,1.959
34.905,1.31
34.92,1.425
34.935,1.897
34.95,1.262
34.965,2.189
34.98,2.63
34.995,2.254
35.01,1.691
35.025,1.79
35.04,1.705
35.055,1.587
35.07,1.826
35.085,2.319
35.1,2.996
35.115,2.163
35.13,1.707
35.145,1.895
35.16,1.961
35.175,1.947
35.19,2.055
35.205,2.527
35.22,2.623
35.235,2.252
35.25,2.109
35.265,2.647
35.28,2.777
35.295,2.61
35.31,2.024
35.325,1.854
35.34,2.125
35.355,2.312
35.37,2.589
35.385,2.084
35.4,2.228
35.415,3.012
35.43,2.393
35.445,2.055
35.46,2.12
35.475,2.573
35.49,2.427
35.505,2.469
35.52,2.562
35.535,2.5
35.55,2.319
35.565,1.853
35.58,2.169
35.595,2.532
35.61,2.122
35.625,2.039
35.64,1.815
35.655,1.965
35.67,2.231
35.685,2.228
35.7,1.994
35.715,1.787
35.73,1.761
35.745,2.32
35.76,1.77
35.775,1.569
35.79,1.631
35.805,2.054
35.82,1.951
35.835,2.027
35.85,2.166
35.865,1.994
35.88,2.04
35.895,1.952
35.91,1.653
35.925,1.433
35.94,1.48
35.955,1.623
35.97,1.71
35.985,1.365
36,1.408
36.015,1.355
36.03,0.978
36.045,1.146
36.06,1.561
36.075,1.353
36.09,1.033
36.105,1.502
36.12,1.813
36.135,0.454
36.15,0.511
36.165,0.779
36.18,0.909
36.195,1.683
36.21,1.577
36.225,0.91
36.24,1.017
36.255,1.114
36.27,1.088
36.285,0.865
36.3,0.741
36.315,1.177
36.33,0.893
36.345,0.825
36.36,1.086
36.375,0.765
36.39,0.729
36.405,0.625
36.42,0.738
36.435,1.112
36.45,0.849
36.465,0.58
36.48,1.106
36.495,1.302
36.51,1.509
36.525,1.48
36.54,0.569
36.555,0.484
36.57,0.9
36.585,1.054
36.6,1.39
36.615,0.948
36.63,0.718
36.645,0.751
36.66,0.616
36.675,0.67
36.69,0.845
36.705,1.098
36.72,1.204
36.735,0.973
36.75,1.382
36.765,1.327
36.78,0.458
36.795,0.69
36.81,1.214
36.825,1.089
36.84,0.593
36.855,0.137
36.87,0.491
36.885,0.606
36.9,0.906
36.915,0.833
36.93,0.238
36.945,0.645
36.96,1.078
36.975,1.443
36.99,1.163
37.005,0.904
37.02,1.304
37.035,1.081
37.05,0.797
37.065,1.084
37.08,0.936
37.095,0.416
37.11,0.309
37.125,0.235
37.14,-0.038
37.155,0.268
37.17,0.286
37.185,-0.026
37.2,0.117
37.215,0.274
37.23,0.259
37.245,0.058
37.26,-0.044
37.275,0.292
37.29,0.398
37.305,0.456
37.32,-0.02
37.335,-0.091
37.35,-0.089
37.365,0.287
37.38,0.323
37.395,0.436
37.41,0.074
37.425,-0.074
37.44,-0.335
37.455,-0.832
37.47,-0.738
37.485,-0.666
37.5,-0.2
37.515,0.107
37.53,-0.16
37.545,-0.144
37.56,0.707
37.575,0.306
37.59,-0.176
37.605,-0.201
37.62,-0.044
37.635,0.081
37.65,-0.123
37.665,-0.357
37.68,-0.646
37.695,-0.445
37.71,-0.04
37.725,-0.399
37.74,-0.28
37.755,0.343
37.77,-0.023
37.785,-0.38
37.8,-0.173
37.815,-0.438
37.83,-0.424
37.845,-0.352
37.86,-0.16
37.875,-0.628
37.89,-0.367
37.905,0.173
37.92,-0.237
37.935,-0.753
37.95,-0.321
37.965,-0.516
37.98,-0.837
37.995,-0.155
38.01,0.108
38.025,0.257
38.04,0.023
38.055,-0.433
38.07,-0.397
38.085,0.042
38.1,-0.236
38.115,-0.419
38.13,-0.366
38.145,-0.249
38.16,0.332
38.175,-0.089
38.19,-0.264
38.205,0.119
38.22,0.114
38.235,0.008
38.25,0.205
38.265,0.062
38.28,0.243
38.295,0.8
38.31,0.227
38.325,-0.293
38.34,0.041
38.355,-0.294
38.37,-0.568
38.385,-0.284
38.4,-0.619
38.415,-0.834
38.43,-0.595
38.445,-0.136
38.46,0.087
38.475,-0.078
38.49,-0.42
38.505,-0.677
38.52,-0.367
38.535,0.601
38.55,0.671
38.565,0.249
38.58,0.183
38.595,0.289
38.61,0.472
38.625,0.186
38.64,0.069
38.655,0.144
38.67,0.069
38.685,0.083
38.7,-0.138
38.715,0.124
38.73,0.078
38.745,-0.275
38.76,-0.232
38.775,0.006
38.79,-0.356
38.805,-0.519
38.82,-0.08
38.835,-0.153
38.85,-0.111
38.865,-0.312
38.88,-0.124
38.895,-0.291
38.91,0.183
38.925,0.58
38.94,0.03
38.955,-0.119
38.97,-0.222
38.985,-0.129
39,-0.278
39.015,-0.139
39.03,0.147
39.045,0.168
39.06,-0.345
39.075,-0.069
39.09,0.318
39.105,0.694
39.12,0.055
39.135,0.003
39.15,0.15
39.165,-0.144
39.18,0.113
39.195,0.386
39.21,0.3
39.225,-0.018
39.24,-0.747
39.255,-0.828
39.27,-0.47
39.285,-0.287
39.3,-0.198
39.315,0.212
39.33,0.458
39.345,0.153
39.36,0.378
39.375,-0.176
39.39,-0.007
39.405,0.021
39.42,-0.095
39.435,-0.176
39.45,0.258
39.465,0.603
39.48,-0.207
39.495,0.26
39.51,0.52
39.525,0.201
39.54,0.437
39.555,0.583
39.57,0.841
39.585,0.944
39.6,0.647
39.615,0.359
39.63,0.398
39.645,0.356
39.66,-0.368
39.675,-0.33
39.69,-0.363
39.705,-0.166
39.72,0.067
39.735,-0.038
39.75,0.015
39.765,-0.573
39.78,-0.828
39.795,-0.411
39.81,-0.306
39.825,-0.193
39.84,0.131
39.855,0.112
39.87,-0.015
39.885,0.409
39.9,0.67
39.915,0.662
39.93,0.221
39.945,-0.204
39.96,-0.063
39.975,0.541
39.99,0.512
40.005,0.237
40.02,-0.431
40.035,-0.27
40.05,0.129
40.065,0.131
40.08,-0.266
40.095,0.008
40.11,0.011
40.125,-0.548
40.14,-0.467
40.155,-0.059
40.17,0.021
40.185,-0.06
40.2,-0.162
40.215,-0.074
40.23,-0.237
40.245,-0.256
40.26,-0.366
40.275,-0.429
40.29,-0.533
40.305,-0.489
40.32,-0.138
40.335,0.266
40.35,0.338
40.365,0.337
40.38,0.08
40.395,-0.215
40.41,-0.046
40.425,0.157
40.44,-0.337
40.455,-0.568
40.47,-0.244
40.485,-0.672
40.5,-0.584
40.515,-0.1
40.53,0.118
40.545,-0.506
40.56,-0.339
40.575,0.053
40.59,0
40.605,0.071
40.62,-0.22
40.635,-0.119
40.65,0.085
40.665,0.229
40.68,0.29
40.695,0.55
40.71,0.393
40.725,-0.061
40.74,-0.319
40.755,-0.031
40.77,0.155
40.785,-0.04
40.8,-0.352
40.815,-0.244
40.83,-0.053
40.845,0.011
40.86,0.365
40.875,0.277
40.89,0.013
40.905,0.162
40.92,0.231
40.935,0.515
40.95,0.302
40.965,-0.348
40.98,-0.378
40.995,0.052
41.01,-0.205
41.025,-0.568
41.04,-0.016
41.055,0.622
41.07,0.2
41.085,-0.088
41.1,-0.184
41.115,-0.479
41.13,-0.202
41.145,0.024
41.16,-0.289
41.175,-0.827
41.19,-0.172
41.205,0.219
41.22,0.053
41.235,0.045
41.25,0.098
41.265,0.405
41.28,0.046
41.295,-0.503
41.31,-0.32
41.325,0.137
41.34,-0.052
41.355,-0.429
41.37,-0.336
41.385,-0.213
41.4,0.138
41.415,0.096
41.43,-0.124
41.445,-0.036
41.46,-0.018
41.475,-0.39
41.49,-0.176
41.505,0.179
41.52,0.189
41.535,0.489
41.55,-0.038
41.565,-0.298
41.58,0.187
41.595,-0.005
41.61,0.285
41.625,0.457
41.64,0.208
41.655,0.256
41.67,0.595
41.685,0.618
41.7,0.768
41.715,0.852
41.73,0.348
41.745,0.604
41.76,0.56
41.775,0.467
41.79,0.756
41.805,0.404
41.82,0.403
41.835,0.647
41.85,0.258
41.865,0.231
41.88,0.398
41.895,0.277
41.91,0.328
41.925,0.845
41.94,0.702
41.955,0.276
41.97,0.01
41.985,0.578
42,0.463
42.015,0.233
42.03,0.411
42.045,0.857
42.06,1.013
42.075,0.388
42.09,0.083
42.105,0.095
42.12,0.885
42.135,0.869
42.15,0.309
42.165,-0.247
42.18,-0.386
42.195,0.088
42.21,0.444
42.225,0.553
42.24,0.776
42.255,1.231
42.27,0.747
42.285,0.15
42.3,0.87
42.315,1.012
42.33,0.427
42.345,0.668
42.36,0.957
42.375,0.859
42.39,0.949
42.405,0.643
42.42,0.573
42.435,0.721
42.45,0.728
42.465,1.333
42.48,0.94
42.495,0.56
42.51,0.939
42.525,1.054
42.54,0.881
42.555,0.827
42.57,1.573
42.585,1.266
42.6,1.219
42.615,1.641
42.63,1.899
42.645,2.152
42.66,1.782
42.675,2.03
42.69,2.17
42.705,2.22
42.72,1.814
42.735,2.213
42.75,2.621
42.765,2.467
42.78,2.451
42.795,2.182
42.81,2.206
42.825,2.681
42.84,2.667
42.855,2.431
42.87,2.358
42.885,2.341
42.9,2.333
42.915,2.253
42.93,2.169
42.945,2.226
42.96,1.861
42.975,2.268
42.99,2.432
43.005,2.373
43.02,2.63
43.035,2.508
43.05,2.394
43.065,2.094
43.08,1.845
43.095,1.794
43.11,1.563
43.125,1.466
43.14,1.692
43.155,1.952
43.17,1.466
43.185,0.968
43.2,0.687
43.215,0.481
43.23,0.874
43.245,1.134
43.26,1.248
43.275,0.975
43.29,1.05
43.305,0.961
43.32,0.415
43.335,-0.072
43.35,0.258
43.365,0.282
43.38,-0.076
43.395,-0.374
43.41,0.178
43.425,0.783
43.44,0.254
43.455,0.247
43.47,0.559
43.485,0.378
43.5,0.357
43.515,0.645
43.53,1.006
43.545,0.831
43.56,0.531
43.575,0.449
43.59,-0.104
43.605,0.144
43.62,-0.271
43.635,-0.308
43.65,-0.086
43.665,-0.012
43.68,-0.389
43.695,-0.248
43.71,0.258
43.725,0.39
43.74,0.567
43.755,0.166
43.77,0.1
43.785,0.418
43.8,0.728
43.815,0.321
43.83,0.159
43.845,-0.089
43.86,-0.282
43.875,-0.124
43.89,-0.036
43.905,-0.071
43.92,-0.104
43.935,0.219
43.95,-0.326
43.965,0.029
43.98,-0.045
43.995,-0.336
44.01,-0.186
44.025,-0.124
44.04,-0.323
44.055,-0.185
44.07,-0.185
44.085,-0.356
44.1,-0.302
44.115,0.164
44.13,0.013
44.145,-0.619
44.16,-0.168
44.175,0.099
44.19,-0.318
44.205,-0.09
44.22,0.429
44.235,-0.028
44.25,-0.521
44.265,-0.189
44.28,0.008
44.295,-0.257
44.31,-0.826
44.325,-0.126
44.34,0.081
44.355,-0.039
44.37,-0.189
44.385,-0.019
44.4,-0.21
44.415,-0.097
44.43,0.068
44.445,-0.672
44.46,-0.579
44.475,-0.12
44.49,-0.248
44.505,0.427
44.52,0.291
44.535,-0.133
44.55,-0.383
44.565,-0.423
44.58,-0.339
44.595,-0.269
44.61,-0.041
44.625,0.213
44.64,0.216
44.655,-0.123
44.67,-0.533
44.685,-0.31
44.7,-0.281
44.715,-0.376
44.73,-0.34
44.745,-0.389
44.76,0.238
44.775,0.273
44.79,0.137
44.805,0.305
44.82,-0.419
44.835,-0.304
44.85,0.039
44.865,-0.103
44.88,-0.518
44.895,-0.268
44.91,-0.365
44.925,-0.729
44.94,-0.65
44.955,-0.261
44.97,-0.373
44.985,-0.47
45,0.281
45.015,0.24
45.03,0.05
45.045,-0.355
45.06,-0.419
45.075,-0.25
45.09,0.163
45.105,0.31
45.12,0.124
45.135,0.204
45.15,0.119
45.165,-0.088
45.18,-0.22
45.195,-0.267
45.21,-0.172
45.225,0.033
45.24,-0.347
45.255,-0.82
45.27,-0.127
45.285,0.198
45.3,-0.229
45.315,-0.237
45.33,-0.067
45.345,0.014
45.36,-0.037
45.375,-0.106
45.39,-0.194
45.405,0.178
45.42,0.194
45.435,0.463
45.45,0.537
45.465,-0.215
45.48,-0.482
45.495,-0.08
45.51,-0.133
45.525,-0.262
45.54,-0.038
45.555,0.221
45.57,-0.296
45.585,-0.214
45.6,-0.204
45.615,-0.186
45.63,-0.285
45.645,-0.515
45.66,0.062
45.675,-0.017
45.69,-0.138
45.705,0.121
45.72,-0.248
45.735,-0.447
45.75,-0.386
45.765,-0.424
45.78,-0.21
45.795,-0.179
45.81,-0.144
45.825,-0.282
45.84,-0.284
45.855,-0.403
45.87,-0.197
45.885,-0.101
45.9,0.314
45.915,-0.02
45.93,0.577
45.945,0.35
45.96,0.127
45.975,-0.056
45.99,-0.305
46.005,-0.635
46.02,-0.292
46.035,0.224
46.05,0.07
46.065,0.279
46.08,-0.377
46.095,-0.132
46.11,-0.159
46.125,-0.328
46.14,-0.711
46.155,-0.4
46.17,-0.502
46.185,0.026
46.2,0.168
46.215,0.006
46.23,-0.087
46.245,-0.063
46.26,-0.498
46.275,-0.693
46.29,-0.586
46.305,-0.08
46.32,-0.068
46.335,-0.028
46.35,0.145
46.365,0.202
46.38,-0.002
46.395,-0.102
46.41,0.008
46.425,0.156
46.44,-0.193
46.455,0.07
46.47,-0.071
46.485,-0.385
46.5,-0.139
46.515,-0.078
46.53,-0.281
46.545,0.036
46.56,-0.624
46.575,-0.736
46.59,0.195
46.605,0.771
46.62,0.673
46.635,-0.13
46.65,0.076
46.665,0.121
46.68,-0.216
46.695,0.047
46.71,0.393
46.725,0.71
46.74,0.54
46.755,0.142
46.77,0.193
46.785,0.547
46.8,-0.193
46.815,-0.216
46.83,0.005
46.845,-0.239
46.86,-0.731
46.875,-0.416
46.89,0.12
46.905,-0.073
46.92,-0.447
46.935,-0.298
46.95,-0.191
46.965,0.246
46.98,0.24
46.995,-0.256
47.01,0.069
47.025,-0.09
47.04,-0.224
47.055,-0.153
47.07,-0.211
47.085,-0.336
47.1,-0.151
47.115,-0.641
47.13,-0.625
47.145,-0.065
47.16,0.103
47.175,-0.242
47.19,-0.305
47.205,0.051
47.22,-0.449
47.235,0.018
47.25,0.058
47.265,-0.185
47.28,0.015
47.295,0.314
47.31,0.234
47.325,0.083
47.34,0.144
47.355,0.005
47.37,-0.08
47.385,0.084
47.4,0.334
47.415,-0.104
47.43,-0.076
47.445,0.08
47.46,-0.413
47.475,-0.029
47.49,0.089
47.505,0.169
47.52,0.341
47.535,0.064
47.55,-0.108
47.565,-0.203
47.58,-0.191
47.595,0.178
47.61,0.387
47.625,0.023
47.64,-0.191
47.655,-0.099
47.67,0.127
47.685,-0.17
47.7,-0.683
47.715,-0.321
47.73,-0.397
47.745,0.016
47.76,0.238
47.775,-0.247
47.79,-0.179
47.805,-0.252
47.82,-0.098
47.835,0.091
47.85,-0.115
47.865,0.021
47.88,-0.023
47.895,-0.31
47.91,-0.602
47.925,-0.368
47.94,0.167
47.955,-0.135
47.97,-0.076
47.985,0.01
48,-0.14
48.015,-0.191
48.03,-0.315
48.045,-0.281
48.06,-0.097
48.075,-0.816
48.09,-0.687
48.105,0.123
48.12,-0.622
48.135,-0.693
48.15,-0.266
48.165,-0.412
48.18,-0.111
48.195,-0.01
48.21,-0.138
48.225,-0.13
48.24,-0.076
48.255,0.078
48.27,-0.101
48.285,-0.313
48.3,0.032
48.315,-0.439
48.33,-0.173
48.345,0.606
48.36,0.658
48.375,0.256
48.39,-0.207
48.405,-0.364
48.42,-0.584
48.435,-0.386
48.45,0.144
48.465,-0.188
48.48,-0.268
48.495,0.348
48.51,0.421
48.525,-0.085
48.54,-0.109
48.555,-0.343
48.57,-0.259
48.585,-0.04
48.6,-0.406
48.615,-0.498
48.63,-0.268
48.645,-0.144
48.66,-0.228
48.675,0.006
48.69,0.12
48.705,-0.223
48.72,-0.549
48.735,-0.815
48.75,-0.514
48.765,-0.088
48.78,0.004
48.795,0.227
48.81,0.696
48.825,0.276
48.84,0.246
48.855,0.123
48.87,0.306
48.885,-0.002
48.9,-0.1
48.915,-0.011
48.93,-0.563
48.945,-0.772
48.96,-0.597
48.975,-0.534
48.99,-0.251
49.005,0.057
49.02,0.015
49.035,0.452
49.05,0.149
49.065,-0.205
49.08,-0.388
49.095,-0.286
49.11,-0.088
49.125,0.126
49.14,-0.379
49.155,-0.816
49.17,0.132
49.185,-0.083
49.2,0.215
49.215,0.282
49.23,-0.059
49.245,-0.117
49.26,-0.102
49.275,0.023
49.29,-0.425
49.305,-0.662
49.32,-0.286
49.335,0.205
49.35,0.019
49.365,-0.068
49.38,0.094
49.395,0.344
49.41,0.129
49.425,-0.32
49.44,-0.022
49.455,0.25
49.47,0.117
49.485,0.014
49.5,-0.257
49.515,-0.435
49.53,-0.217
49.545,0.142
49.56,0.047
49.575,-0.277
49.59,-0.17
49.605,-0.345
49.62,-0.772
49.635,-0.1
49.65,0.091
49.665,-0.513
49.68,-0.609
49.695,-0.306
49.71,-0.201
49.725,0.295
49.74,0.189
49.755,-0.14
49.77,-0.299
49.785,-0.093
49.8,0
49.815,-0.388
49.83,-0.815
49.845,-0.571
49.86,-0.458
49.875,-0.193
49.89,-0.072
49.905,0.052
49.92,0.112
49.935,0.024
49.95,0.092
49.965,0.233
49.98,-0.157
49.995,0.128
50.01,-0.205
50.025,-0.049
50.04,-0.022
50.055,-0.44
50.07,-0.581
50.085,-0.573
50.1,-0.405
50.115,0.235
50.13,0.029
50.145,-0.135
50.16,-0.024
50.175,-0.126
50.19,-0.042
50.205,0.338
50.22,0.654
50.235,0.25
50.25,-0.069
50.265,-0.45
50.28,-0.747
50.295,-0.653
50.31,-0.684
50.325,-0.384
50.34,-0.184
50.355,-0.092
50.37,-0.151
50.385,-0.416
50.4,-0.148
50.415,0.249
50.43,0.308
50.445,-0.121
50.46,-0.503
50.475,-0.597
50.49,-0.486
50.505,-0.093
50.52,-0.021
50.535,-0.405
50.55,-0.207
50.565,-0.066
50.58,-0.199
50.595,-0.165
50.61,-0.224
50.625,-0.097
50.64,-0.103
50.655,-0.572
50.67,-0.4
50.685,-0.108
50.7,-0.142
50.715,0.002
50.73,0.059
50.745,-0.011
50.76,-0.03
50.775,-0.127
50.79,0.486
50.805,-0.132
50.82,-0.44
50.835,-0.278
50.85,-0.419
50.865,-0.013
50.88,-0.154
50.895,-0.175
50.91,-0.018
50.925,0.185
50.94,-0.057
50.955,-0.618
50.97,-0.411
50.985,-0.012
51,0.452
51.015,0.5
51.03,0.077
51.045,-0.46
51.06,-0.557
51.075,-0.26
51.09,-0.307
51.105,-0.279
51.12,-0.706
51.135,-0.286
51.15,-0.115
51.165,-0.372
51.18,-0.202
51.195,-0.068
51.21,-0.139
51.225,-0.044
51.24,0.086
51.255,-0.304
51.27,-0.512
51.285,0.026
51.3,0.102
51.315,-0.813
51.33,-0.37
51.345,-0.075
51.36,-0.813
51.375,-0.416
51.39,-0.255
51.405,-0.078
51.42,-0.159
51.435,-0.512
51.45,-0.394
51.465,-0.545
51.48,-0.364
51.495,-0.23
51.51,-0.231
51.525,-0.24
51.54,0.491
51.555,0.652
51.57,0.068
51.585,0.071
51.6,0.021
51.615,-0.083
51.63,-0.229
51.645,0.155
51.66,-0.12
51.675,0.019
51.69,0.011
51.705,-0.263
51.72,-0.157
51.735,-0.377
51.75,-0.557
51.765,-0.145
51.78,0.099
51.795,-0.115
51.81,-0.007
51.825,-0.17
51.84,-0.376
51.855,0.051
51.87,0.138
51.885,-0.098
51.9,-0.123
51.915,-0.223
51.93,-0.324
51.945,-0.267
51.96,-0.459
51.975,-0.124
51.99,0.117
52.005,-0.391
52.02,-0.177
52.035,-0.187
52.05,-0.595
52.065,-0.774
52.08,-0.363
52.095,-0.601
52.11,-0.151
52.125,0.641
52.14,0.312
52.155,0.026
52.17,-0.323
52.185,-0.611
52.2,-0.568
52.215,-0.26
52.23,-0.349
52.245,-0.057
52.26,-0.099
52.275,-0.54
52.29,-0.2
52.305,-0.174
52.32,-0.421
52.335,-0.34
52.35,-0.602
52.365,-0.709
52.38,-0.682
52.395,-0.221
52.41,0.298
52.425,-0.28
52.44,-0.814
52.455,-0.684
52.47,-0.549
52.485,-0.359
52.5,0.328
52.515,0.397
52.53,-0.22
52.545,-0.427
52.56,-0.409
52.575,0.034
52.59,-0.251
52.605,-0.044
52.62,-0.068
52.635,0.041
52.65,-0.221
52.665,-0.425
52.68,-0.322
52.695,0.554
52.71,0.574
52.725,-0.009
52.74,-0.109
52.755,0.174
52.77,-0.116
52.785,-0.283
52.8,0.418
52.815,0.502
52.83,0.083
52.845,0.18
52.86,-0.272
52.875,-0.559
52.89,-0.555
52.905,-0.409
52.92,-0.614
52.935,-0.395
52.95,-0.006
52.965,-0.082
52.98,0.323
52.995,0.419
53.01,-0.537
53.025,0.235
53.04,0.43
53.055,0.231
53.07,-0.478
53.085,-0.446
53.1,-0.148
53.115,0.291
53.13,0.276
53.145,-0.033
53.16,0.151
53.175,0.302
53.19,0.651
53.205,0.236
53.22,-0.273
53.235,-0.161
53.25,0.035
53.265,-0.447
53.28,-0.666
53.295,-0.369
53.31,0.008
53.325,0.043
53.34,-0.297
53.355,-0.025
53.37,-0.074
53.385,-0.127
53.4,-0.289
53.415,-0.064
53.43,0.016
53.445,0.058
53.46,0.084
53.475,0.386
53.49,0.18
53.505,0.222
53.52,0.242
53.535,0.328
53.55,0.494
53.565,0.292
53.58,0.17
53.595,-0.176
53.61,-0.404
53.625,-0.183
53.64,-0.262
53.655,-0.043
53.67,-0.012
53.685,-0.377
53.7,-0.812
53.715,-0.465
53.73,0.192
53.745,-0.148
53.76,-0.358
53.775,0.448
53.79,0.325
53.805,-0.604
53.82,-0.124
53.835,-0.271
53.85,-0.6
53.865,-0.295
53.88,0.037
53.895,-0.159
53.91,0.122
53.925,0.052
53.94,-0.074
53.955,-0.263
53.97,-0.365
53.985,-0.341
54,-0.39
54.015,-0.27
54.03,-0.205
54.045,0.43
54.06,0.279
54.075,0.134
54.09,0.297
54.105,-0.162
54.12,-0.202
54.135,0.005
54.15,-0.255
54.165,-0.166
54.18,0.205
54.195,0.519
54.21,0.569
54.225,0.217
54.24,0.251
54.255,0.1
54.27,-0.126
54.285,-0.278
54.3,0.089
54.315,0.551
54.33,0.14
54.345,-0.326
54.36,-0.115
54.375,-0.19
54.39,-0.275
54.405,0.027
54.42,0.199
54.435,0.067
54.45,0.381
54.465,-0.016
54.48,-0.14
54.495,-0.157
54.51,0.089
54.525,-0.013
54.54,-0.637
54.555,-0.109
54.57,-0.191
54.585,-0.243
54.6,-0.237
54.615,-0.004
54.63,0.369
54.645,0.404
54.66,0.179
54.675,0.055
54.69,-0.141
54.705,0.067
54.72,-0.204
54.735,-0.29
54.75,-0.03
54.765,0.187
54.78,0.199
54.795,-0.121
54.81,-0.046
54.825,-0.459
54.84,-0.489
54.855,-0.229
54.87,0.037
54.885,-0.023
54.9,-0.111
54.915,0.056
54.93,-0.59
54.945,-0.78
54.96,-0.152
54.975,0.074
54.99,0.19
55.005,-0.193
55.02,-0.81
55.035,-0.659
55.05,-0.015
55.065,-0.085
55.08,0.03
55.095,0.147
55.11,-0.374
55.125,-0.458
55.14,-0.166
55.155,0.12
55.17,-0.66
55.185,-0.385
55.2,0.111
55.215,-0.129
55.23,-0.606
55.245,-0.471
55.26,-0.264
55.275,-0.256
55.29,0.12
55.305,0.539
55.32,0.344
55.335,-0.081
55.35,-0.108
55.365,-0.156
55.38,-0.274
55.395,0.123
55.41,-0.152
55.425,-0.297
55.44,0.02
55.455,-0.107
55.47,-0.134
55.485,-0.152
55.5,-0.026
55.515,0.066
55.53,0.088
55.545,0.176
55.56,-0.095
55.575,0.092
55.59,-0.11
55.605,-0.412
55.62,-0.246
55.635,-0.358
55.65,-0.01
55.665,0.216
55.68,0.027
55.695,-0.24
55.71,-0.439
55.725,-0.151
55.74,-0.156
55.755,0.065
55.77,-0.151
55.785,-0.781
55.8,-0.411
55.815,-0.198
55.83,-0.045
55.845,0.009
55.86,-0.011
55.875,-0.557
55.89,-0.812
55.905,-0.697
55.92,-0.615
55.935,-0.214
55.95,0.334
55.965,0.405
55.98,-0.114
55.995,-0.174
56.01,0.042
56.025,0.212
56.04,0.276
56.055,0.062
56.07,-0.246
56.085,-0.23
56.1,-0.054
56.115,0.481
56.13,0.378
56.145,0.407
56.16,0.355
56.175,0.008
56.19,0.058
56.205,-0.043
56.22,-0.256
56.235,0.022
56.25,-0.055
56.265,0.084
56.28,0.086
56.295,0.314
56.31,0.497
56.325,0.505
56.34,-0.244
56.355,-0.211
56.37,0.108
56.385,0.511
56.4,0.572
56.415,0.12
56.43,0.076
56.445,-0.056
56.46,-0.007
56.475,0.115
56.49,-0.36
56.505,-0.731
56.52,0.101
56.535,0.417
56.55,-0.035
56.565,-0.067
56.58,0.077
56.595,-0.143
56.61,-0.028
56.625,0.031
56.64,0.201
56.655,0.424
56.67,0.281
56.685,-0.235
56.7,-0.229
56.715,-0.466
56.73,-0.318
56.745,0.143
56.76,0.005
56.775,-0.158
56.79,0.169
56.805,0.243
56.82,-0.009
56.835,0.543
56.85,0.475
56.865,-0.024
56.88,0.396
56.895,0.445
56.91,0.115
56.925,-0.118
56.94,0.017
56.955,-0.031
56.97,0.118
56.985,0.315
57,0.17
57.015,0.319
57.03,-0.178
57.045,0.272
57.06,0.166
57.075,0.119
57.09,-0.303
57.105,-0.407
57.12,0.287
57.135,0.008
57.15,0.221
57.165,-0.048
57.18,-0.052
57.195,-0.259
57.21,0.267
57.225,0.715
57.24,0.218
57.255,-0.01
57.27,0.267
57.285,0.371
57.3,0.395
57.315,-0.275
57.33,-0.189
57.345,-0.03
57.36,-0.132
57.375,0.143
57.39,0.463
57.405,0.317
57.42,0.072
57.435,0.454
57.45,0.39
57.465,0.614
57.48,0.172
57.495,-0.357
57.51,0.163
57.525,0.234
57.54,-0.108
57.555,-0.037
57.57,-0.161
57.585,0.067
57.6,-0.313
57.615,-0.637
57.63,-0.308
57.645,-0.397
57.66,-0.233
57.675,0.073
57.69,0.499
57.705,0.411
57.72,-0.313
57.735,0.677
57.75,1.365
57.765,0.127
57.78,-0.091
57.795,0.264
57.81,0.105
57.825,0.039
57.84,0.437
57.855,0.445
57.87,-0.179
57.885,-0.236
57.9,-0.193
57.915,0.271
57.93,0.055
57.945,0.007
57.96,0.21
57.975,-0.095
57.99,0.168
58.005,0.284
58.02,-0.592
58.035,-0.642
58.05,-0.066
58.065,0.491
58.08,-0.143
58.095,-0.478
58.11,-0.115
58.125,-0.113
58.14,-0.283
58.155,-0.548
58.17,-0.162
58.185,-0.192
58.2,-0.194
58.215,-0.177
58.23,-0.117
58.245,0.092
58.26,0.231
58.275,-0.112
58.29,-0.087
58.305,0.426
58.32,0.259
58.335,-0.412
58.35,-0.298
58.365,-0.161
58.38,0.238
58.395,0.088
58.41,0.3
58.425,-0.285
58.44,-0.678
58.455,-0.534
58.47,-0.471
58.485,-0.387
58.5,-0.261
58.515,-0.642
58.53,-0.807
58.545,0.102
58.56,-0.179
58.575,-0.584
58.59,-0.056
58.605,0.717
58.62,0.287
58.635,0.2
58.65,-0.049
58.665,-0.165
58.68,-0.254
58.695,-0.077
58.71,-0.385
58.725,-0.492
58.74,-0.37
58.755,-0.087
58.77,0.292
58.785,0.223
58.8,0.135
58.815,0.137
58.83,-0.139
58.845,-0.03
58.86,-0.572
58.875,-0.777
58.89,-0.523
58.905,-0.618
58.92,-0.388
58.935,-0.24
58.95,-0.232
58.965,-0.134
58.98,0.1
58.995,0.277
59.01,0.211
59.025,-0.09
59.04,-0.232
59.055,-0.109
59.07,-0.248
59.085,-0.392
59.1,-0.153
59.115,0.103
59.13,0.304
59.145,0.257
59.16,-0.059
59.175,-0.683
59.19,-0.142
59.205,-0.304
59.22,-0.199
59.235,0.006
59.25,0.377
59.265,0.22
59.28,-0.157
59.295,-0.096
59.31,-0.193
59.325,-0.501
59.34,-0.618
59.355,-0.185
59.37,0.089
59.385,0.457
59.4,0.168
59.415,0.07
59.43,-0.064
59.445,-0.367
59.46,0.176
59.475,0.926
59.49,0.051
59.505,-0.097
59.52,0.237
59.535,-0.211
59.55,-0.761
59.565,-0.423
59.58,-0.297
59.595,-0.359
59.61,-0.386
59.625,-0.802
59.64,-0.495
59.655,0.041
59.67,-0.083
59.685,-0.221
59.7,-0.394
59.715,-0.115
59.73,0.225
59.745,-0.04
59.76,-0.295
59.775,-0.495
59.79,-0.428
59.805,-0.019
59.82,-0.267
59.835,-0.409
59.85,-0.151
59.865,-0.143
59.88,-0.171
59.895,0.084
59.91,0.246
59.925,0.222
59.94,-0.029
59.955,-0.534
59.97,-0.542
59.985,-0.565
60,-0.199
60.015,0.28
60.03,0.23
60.045,0.323
60.06,0.001
60.075,-0.301
60.09,0.006
60.105,-0.179
60.12,-0.446
60.135,-0.267
60.15,-0.376
60.165,-0.211
60.18,0.398
60.195,0.27
60.21,0.148
60.225,0.059
60.24,-0.311
60.255,-0.369
60.27,-0.661
60.285,-0.466
60.3,-0.282
60.315,-0.141
60.33,0.136
60.345,0.034
60.36,-0.156
60.375,-0.234
60.39,0.212
60.405,0.131
60.42,-0.092
60.435,-0.163
60.45,-0.803
60.465,-0.365
60.48,0.022
60.495,-0.273
60.51,0.084
60.525,0.004
60.54,0.211
60.555,0.089
60.57,0.043
60.585,0.372
60.6,0.238
60.615,0.174
60.63,-0.473
60.645,-0.577
60.66,-0.325
60.675,-0.118
60.69,-0.054
60.705,-0.209
60.72,0.43
60.735,0.306
60.75,-0.105
60.765,0.309
60.78,-0.101
60.795,-0.024
60.81,-0.286
60.825,-0.364
60.84,-0.014
60.855,0.124
60.87,0.128
60.885,-0.11
60.9,-0.321
60.915,0.257
60.93,0.171
60.945,-0.012
60.96,0.335
60.975,0.108
60.99,-0.341
61.005,-0.132
61.02,0.13
61.035,0.001
61.05,-0.029
61.065,0.069
61.08,0.253
61.095,0.439
61.11,0.367
61.125,0.073
61.14,0.224
61.155,0.807
61.17,0.718
61.185,0.324
61.2,0.158
61.215,-0.01
61.23,-0.225
61.245,0.13
61.26,0.129
61.275,0.173
61.29,-0.456
61.305,-0.804
61.32,-0.308
61.335,0.161
61.35,-0.088
61.365,-0.188
61.38,-0.234
61.395,-0.493
61.41,-0.405
61.425,-0.165
61.44,-0.259
61.455,-0.484
61.47,-0.347
61.485,-0.146
61.5,0.244
61.515,0.144
61.53,-0.101
61.545,-0.274
61.56,-0.19
61.575,0.355
61.59,-0.02
61.605,-0.538
61.62,-0.375
61.635,0.178
61.65,0.189
61.665,0.287
61.68,0.449
61.695,0.384
61.71,0.327
61.725,-0.141
61.74,-0.218
61.755,0.284
61.77,0.913
61.785,0.175
61.8,-0.22
61.815,0.271
61.83,0.704
61.845,0.635
61.86,0.428
61.875,0.863
61.89,1.252
61.905,0.821
61.92,1.266
61.935,1.804
61.95,1.835
61.965,1.488
61.98,1.66
61.995,1.564
62.01,1.465
62.025,1.039
62.04,1.352
62.055,1.725
62.07,2.16
62.085,2.445
62.1,1.883
62.115,1.418
62.13,2.082
62.145,2.226
62.16,1.737
62.175,1.912
62.19,1.876
62.205,2.063
62.22,2.291
62.235,2.478
62.25,2.471
62.265,2.402
62.28,2.369
62.295,2.668
62.31,2.48
62.325,2.34
62.34,2.98
62.355,2.845
62.37,2.184
62.385,2.318
62.4,2.409
62.415,2.556
62.43,2.6
62.445,2.516
62.46,2.071
62.475,2.112
62.49,2.263
62.505,2.238
62.52,1.808
62.535,1.887
62.55,2.447
62.565,2.757
62.58,2.109
62.595,1.439
62.61,1.262
62.625,1.597
62.64,1.556
62.655,1.534
62.67,1.235
62.685,1.078
62.7,1.113
62.715,1.213
62.73,1.506
62.745,1.342
62.76,1.42
62.775,1.835
62.79,1.953
62.805,1.599
62.82,1.202
62.835,0.771
62.85,0.758
62.865,0.849
62.88,0.934
62.895,1.027
62.91,0.848
62.925,1.172
62.94,1.261
62.955,1.258
62.97,1.268
62.985,0.651
63,0.583
63.015,0.341
63.03,0.177
63.045,0.486
63.06,0.558
63.075,0.104
63.09,-0.029
63.105,-0.256
63.12,-0.006
63.135,0.347
63.15,-0.115
63.165,0.34
63.18,0.538
63.195,0.523
63.21,0.181
63.225,0.062
63.24,0.258
63.255,0.608
63.27,0.42
63.285,0.225
63.3,0.817
63.315,1.05
63.33,0.8
63.345,0.316
63.36,-0.24
63.375,-0.476
63.39,0.218
63.405,0.575
63.42,0.152
63.435,-0.439
63.45,-0.464
63.465,-0.156
63.48,-0.047
63.495,-0.159
63.51,-0.488
63.525,-0.113
63.54,0.107
63.555,0.272
63.57,0.439
63.585,0.444
63.6,-0.007
63.615,-0.069
63.63,0.099
63.645,0.443
63.66,0.316
63.675,0.129
63.69,0.028
63.705,-0.134
63.72,-0.304
63.735,0.254
63.75,0.575
63.765,-0.212
63.78,-0.495
63.795,-0.142
63.81,-0.026
63.825,-0.204
63.84,-0.37
63.855,-0.543
63.87,-0.375
63.885,-0.02
63.9,0.366
63.915,-0.663
63.93,-0.43
63.945,-0.155
63.96,-0.109
63.975,-0.015
63.99,-0.534
64.005,-0.799
64.02,-0.261
64.035,-0.335
64.05,-0.77
64.065,-0.434
64.08,0.004
64.095,-0.031
64.11,0.161
64.125,0.042
64.14,-0.061
64.155,-0.546
64.17,-0.365
64.185,-0.074
64.2,-0.504
64.215,-0.635
64.23,-0.605
64.245,-0.58
64.26,-0.262
64.275,-0.036
64.29,-0.43
64.305,-0.212
64.32,-0.081
64.335,0.088
64.35,-0.268
64.365,-0.452
64.38,-0.271
64.395,-0.23
64.41,-0.262
64.425,-0.174
64.44,-0.408
64.455,-0.312
64.47,-0.432
64.485,-0.608
64.5,-0.181
64.515,-0.279
64.53,-0.571
64.545,-0.504
64.56,-0.084
64.575,-0.166
64.59,-0.095
64.605,0.004
64.62,0.217
64.635,-0.291
64.65,-0.66
64.665,0.012
64.68,0.272
64.695,-0.226
64.71,-0.051
64.725,-0.082
64.74,-0.065
64.755,-0.266
64.77,-0.213
64.785,-0.059
64.8,0.07
64.815,-0.329
64.83,-0.79
64.845,-0.727
64.86,-0.361
64.875,-0.37
64.89,-0.193
64.905,-0.271
64.92,-0.037
64.935,0.149
64.95,-0.593
64.965,-0.126
64.98,0.517
64.995,0.491
65.01,-0.001
65.025,-0.794
65.04,-0.677
65.055,-0.144
65.07,-0.052
65.085,-0.421
65.1,-0.355
65.115,0.212
65.13,0.635
65.145,0.247
65.16,-0.253
65.175,0.017
65.19,0.211
65.205,0.179
65.22,0.333
65.235,-0.176
65.25,-0.356
65.265,-0.042
65.28,0.339
65.295,0.135
65.31,-0.221
65.325,-0.032
65.34,0.351
65.355,-0.286
65.37,-0.429
65.385,0.003
65.4,0.165
65.415,0.39
65.43,0.2
65.445,-0.23
65.46,-0.373
65.475,0.212
65.49,0.531
65.505,0.401
65.52,0.118
65.535,-0.212
65.55,-0.502
65.565,-0.791
65.58,-0.466
65.595,0.486
65.61,0.413
65.625,-0.035
65.64,0.349
65.655,0.248
65.67,0.315
65.685,0.184
65.7,0.067
65.715,-0.216
65.73,0.283
65.745,0.523
65.76,0.234
65.775,0.53
65.79,0.078
65.805,-0.069
65.82,0.224
65.835,-0.02
65.85,-0.297
65.865,0.093
65.88,0.45
65.895,0.417
65.91,0.409
65.925,-0.108
65.94,0.203
65.955,0.143
65.97,-0.26
65.985,0.193
66,0.357
66.015,-0.094
66.03,0.165
66.045,-0.258
66.06,0.037
66.075,0.497
66.09,0.061
66.105,-0.087
66.12,-0.049
66.135,-0.032
66.15,0.171
66.165,-0.138
66.18,-0.788
66.195,0.007
66.21,0.231
66.225,0.451
66.24,0.603
66.255,0.524
66.27,0.187
66.285,0.374
66.3,0.353
66.315,0.113
66.33,-0.168
66.345,-0.434
66.36,0.073
66.375,-0.033
66.39,0.112
66.405,0.196
66.42,-0.352
66.435,-0.255
66.45,0.044
66.465,0.065
66.48,0.756
66.495,0.508
66.51,0.027
66.525,-0.311
66.54,-0.182
66.555,-0.015
66.57,0.548
66.585,0.137
66.6,-0.077
66.615,-0.444
66.63,-0.511
66.645,-0.269
66.66,0.024
66.675,0.2
66.69,0.277
66.705,-0.208
66.72,-0.222
66.735,-0.116
66.75,-0.172
66.765,0.01
66.78,0.101
66.795,0.006
66.81,0.191
66.825,-0.048
66.84,-0.138
66.855,0.171
66.87,0.189
66.885,0.085
66.9,0.129
66.915,0.24
66.93,0.345
66.945,0.106
66.96,-0.203
66.975,-0.403
66.99,-0.445
67.005,-0.078
67.02,0.019
67.035,-0.338
67.05,-0.335
67.065,-0.184
67.08,0.133
67.095,-0.045
67.11,-0.207
67.125,0.098
67.14,0.287
67.155,0.039
67.17,0.108
67.185,0.072
67.2,-0.183
67.215,-0.398
67.23,-0.435
67.245,-0.467
67.26,-0.148
67.275,-0.086
67.29,-0.218
67.305,-0.141
67.32,0.011
67.335,-0.113
67.35,-0.15
67.365,-0.253
67.38,-0.072
67.395,0.136
67.41,0.088
67.425,0.197
67.44,-0.072
67.455,-0.372
67.47,0
67.485,0.545
67.5,-0.119
67.515,-0.049
67.53,-0.353
67.545,-0.559
67.56,-0.347
67.575,-0.493
67.59,0.102
67.605,0.213
67.62,0.253
67.635,0.012
67.65,-0.489
67.665,-0.586
67.68,-0.208
67.695,0.063
67.71,-0.282
67.725,-0.076
67.74,0.272
67.755,0.095
67.77,-0.125
67.785,0.073
67.8,-0.005
67.815,-0.678
67.83,-0.751
67.845,-0.55
67.86,0.091
67.875,0.125
67.89,-0.053
67.905,0.069
67.92,0.407
67.935,0.341
67.95,-0.418
67.965,-0.599
67.98,-0.654
67.995,-0.447
68.01,-0.24
68.025,-0.518
68.04,-0.541
68.055,-0.494
68.07,-0.32
68.085,-0.446
68.1,-0.311
68.115,0.139
68.13,0.196
68.145,-0.352
68.16,-0.524
68.175,-0.506
68.19,-0.332
68.205,-0.186
68.22,-0.051
68.235,0.183
68.25,-0.093
68.265,-0.476
68.28,-0.579
68.295,-0.541
68.31,-0.362
68.325,-0.205
68.34,-0.549
68.355,-0.632
68.37,-0.219
68.385,-0.645
68.4,-0.611
68.415,-0.334
68.43,-0.519
68.445,-0.505
68.46,-0.458
68.475,-0.014
68.49,-0.012
68.505,-0.146
68.52,-0.339
68.535,-0.508
68.55,-0.459
68.565,-0.789
68.58,-0.513
68.595,-0.284
68.61,-0.001
68.625,-0.256
68.64,-0.253
68.655,0.24
68.67,-0.159
68.685,-0.625
68.7,-0.366
68.715,-0.123
68.73,-0.219
68.745,-0.276
68.76,-0.049
68.775,-0.047
68.79,-0.461
68.805,-0.627
68.82,-0.261
68.835,0.059
68.85,-0.041
68.865,-0.29
68.88,0.049
68.895,-0.046
68.91,0.223
68.925,0.204
68.94,-0.014
68.955,0.109
68.97,-0.401
68.985,-0.162
69,-0.048
69.015,-0.49
69.03,0.003
69.045,0.076
69.06,-0.744
69.075,-0.539
69.09,-0.052
69.105,-0.166
69.12,-0.106
69.135,-0.397
69.15,-0.107
69.165,-0.27
69.18,-0.431
69.195,-0.148
69.21,-0.149
69.225,0.212
69.24,0.376
69.255,0.321
69.27,-0.034
69.285,-0.031
69.3,-0.256
69.315,-0.418
69.33,-0.093
69.345,0.032
69.36,-0.454
69.375,-0.603
69.39,-0.756
69.405,-0.167
69.42,0.169
69.435,-0.404
69.45,-0.406
69.465,-0.004
69.48,-0.268
69.495,-0.188
69.51,0.199
69.525,-0.382
69.54,-0.178
69.555,-0.228
69.57,0.287
69.585,0.244
69.6,0.125
69.615,-0.007
69.63,-0.492
69.645,-0.568
69.66,-0.295
69.675,-0.401
69.69,-0.627
69.705,-0.114
69.72,0.256
69.735,-0.188
69.75,-0.354
69.765,-0.265
69.78,-0.146
69.795,0.088
69.81,0.082
69.825,0.148
69.84,-0.063
69.855,-0.206
69.87,0.215
69.885,-0.306
69.9,-0.47
69.915,-0.184
69.93,0.131
69.945,0.181
69.96,-0.085
69.975,-0.301
69.99,0.02
70.005,-0.622
70.02,-0.492
70.035,0.16
70.05,0.036
70.065,-0.073
70.08,-0.321
70.095,-0.243
70.11,0.417
70.125,0.321
70.14,-0.168
70.155,0.074
70.17,0.291
70.185,0.201
70.2,-0.11
70.215,-0.529
70.23,-0.207
70.245,-0.07
70.26,-0.396
70.275,-0.309
70.29,-0.36
70.305,-0.272
70.32,-0.054
70.335,-0.26
70.35,-0.578
70.365,-0.508
70.38,-0.442
70.395,-0.455
70.41,-0.276
70.425,0.26
70.44,-0.05
70.455,-0.477
70.47,-0.445
70.485,-0.113
70.5,-0.318
70.515,-0.205
70.53,-0.165
70.545,0.012
70.56,-0.001
70.575,-0.169
70.59,0.28
70.605,0.563
70.62,0.014
70.635,-0.143
70.65,-0.034
70.665,-0.271
70.68,-0.266
70.695,-0.309
70.71,-0.207
70.725,-0.297
70.74,-0.379
70.755,-0.198
70.77,-0.707
70.785,-0.787
70.8,-0.334
70.815,-0.588
70.83,-0.649
70.845,-0.454
70.86,-0.131
70.875,0.471
70.89,0.356
70.905,-0.113
70.92,0.054
70.935,0.161
70.95,-0.024
70.965,-0.266
70.98,-0.413
70.995,-0.234
71.01,-0.053
71.025,0.05
71.04,-0.056
71.055,-0.578
71.07,-0.438
71.085,-0.602
71.1,-0.688
71.115,-0.038
71.13,0.456
71.145,0.432
71.16,0.285
71.175,0.25
71.19,0.28
71.205,0.28
71.22,0.209
71.235,0.232
71.25,0.417
71.265,0.107
71.28,0.354
71.295,0.388
71.31,0.161
71.325,0.019
71.34,0.132
71.355,0.69
71.37,0.401
71.385,-0.171
71.4,-0.124
71.415,0.311
71.43,-0.094
71.445,-0.275
71.46,0.489
71.475,0.709
71.49,0.031
71.505,-0.127
71.52,-0.114
71.535,0.019
71.55,0.386
71.565,0.254
71.58,0.565
71.595,-0.099
71.61,-0.653
71.625,-0.275
71.64,0.042
71.655,0.207
71.67,-0.023
71.685,0.2
71.7,0.611
71.715,0.108
71.73,-0.035
71.745,-0.122
71.76,-0.247
71.775,-0.616
71.79,-0.453
71.805,-0.302
71.82,0.103
71.835,0.507
71.85,0.158
71.865,0.027
71.88,0.121
71.895,0.273
71.91,-0.218
71.925,-0.122
71.94,0.007
71.955,0.189
71.97,-0.039
71.985,-0.138
72,0.059
72.015,-0.136
72.03,-0.025
72.045,0.306
72.06,0.248
72.075,0.426
72.09,0.205
72.105,-0.649
72.12,-0.56
72.135,0.385
72.15,0.632
72.165,0.409
72.18,0.154
72.195,0.293
72.21,0.43
72.225,0.295
72.24,0.176
72.255,0.527
72.27,0.392
72.285,0.42
72.3,0.659
72.315,0.71
72.33,0.111
72.345,0.492
72.36,0.258
72.375,0.222
72.39,0.573
72.405,0.268
72.42,0.262
72.435,0.526
72.45,0.457
72.465,0.414
72.48,0.248
72.495,0.581
72.51,0.791
72.525,0.395
72.54,0.579
72.555,0.871
72.57,0.745
72.585,0.249
72.6,0.204
72.615,0.701
72.63,0.556
72.645,0.303
72.66,0.19
72.675,0.497
72.69,0.177
72.705,0.264
72.72,0.926
72.735,0.836
72.75,0.796
72.765,0.809
72.78,0.143
72.795,-0.084
72.81,0.323
72.825,0.545
72.84,0.465
72.855,0.371
72.87,0.331
72.885,0.3
72.9,0.251
72.915,0.346
72.93,0.728
72.945,0.393
72.96,0.657
72.975,0.426
72.99,0.133
73.005,0.18
73.02,0.213
73.035,0.747
73.05,0.748
73.065,0.919
73.08,1.077
73.095,0.906
73.11,1.091
73.125,0.836
73.14,0.774
73.155,0.636
73.17,0.755
73.185,1.001
73.2,0.971
73.215,0.657
73.23,0.455
73.245,0.01
73.26,0.207
73.275,0.771
73.29,0.903
73.305,0.891
73.32,1.175
73.335,0.788
73.35,0.662
73.365,0.671
73.38,0.566
73.395,1.188
73.41,1.277
73.425,0.92
73.44,1.011
73.455,0.901
73.47,0.897
73.485,1.151
73.5,1.159
73.515,0.946
73.53,0.597
73.545,0.803
73.56,1.15
73.575,0.863
73.59,0.943
73.605,0.972
73.62,0.706
73.635,0.9
73.65,1.192
73.665,0.895
73.68,1.302
73.695,1.309
73.71,1.297
73.725,1.135
73.74,1.262
73.755,1.422
73.77,1.354
73.785,0.943
73.8,1.122
73.815,0.864
73.83,0.88
73.845,1.176
73.86,0.968
73.875,1.121
73.89,1.639
73.905,1.689
73.92,1.339
73.935,1.304
73.95,1.037
73.965,1.153
73.98,1.168
73.995,1.677
74.01,1.495
74.025,1.142
74.04,1.076
74.055,1.41
74.07,1.601
74.085,1.351
74.1,0.816
74.115,0.815
74.13,1.378
74.145,1.134
74.16,1.174
74.175,1.581
74.19,1.521
74.205,1.254
74.22,1.438
74.235,2.059
74.25,1.816
74.265,1.363
74.28,1.573
74.295,1.67
74.31,1.099
74.325,1.274
74.34,1.742
74.355,1.336
74.37,1.292
74.385,1.819
74.4,1.14
74.415,1.718
74.43,2.243
74.445,1.674
74.46,1.464
74.475,1.695
74.49,1.669
74.505,1.786
74.52,1.862
74.535,2.228
74.55,1.688
74.565,1.824
74.58,1.98
74.595,1.638
74.61,1.712
74.625,1.916
74.64,1.826
74.655,2.052
74.67,1.563
74.685,1.304
74.7,1.878
74.715,2.129
74.73,1.758
74.745,1.404
74.76,1.602
74.775,2.009
74.79,2.289
74.805,1.84
74.82,1.648
74.835,2.266
74.85,2.366
74.865,1.881
74.88,2.032
74.895,1.747
74.91,1.627
74.925,1.854
74.94,1.581
74.955,1.139
74.97,1.468
74.985,1.693
75,1.539
75.015,1.296
75.03,1.484
75.045,1.277
75.06,0.905
75.075,0.878
75.09,0.759
75.105,1.375
75.12,1.221
75.135,1.835
75.15,1.549
75.165,1.539
75.18,1.205
75.195,0.253
75.21,0.202
75.225,-0.3
75.24,0.85
75.255,1.166
75.27,-1.362
75.285,-0.746
75.3,0.15
75.315,-0.759
75.33,-4.036
75.345,0
