24.99,0
25.005,0.311
25.02,0.165
25.035,0.078
25.05,0.02
25.065,-0.004
25.08,0.08
25.095,0.001
25.11,-0.08
25.125,-0.04
25.14,-0.024
25.155,0.09
25.17,0.061
25.185,-0.054
25.2,-0.018
25.215,-0.001
25.23,0.076
25.245,0.115
25.26,0.095
25.275,0.07
25.29,-0.001
25.305,0.058
25.32,0.047
25.335,0.017
25.35,0.034
25.365,0.053
25.38,0.09
25.395,0.099
25.41,0.024
25.425,-0.002
25.44,-0.04
25.455,-0.02
25.47,0.005
25.485,-0.01
25.5,-0.039
25.515,-0.048
25.53,-0.008
25.545,0.044
25.56,0.094
25.575,0.025
25.59,0.04
25.605,0.016
25.62,-0.029
25.635,-0.002
25.65,-0.08
25.665,-0.029
25.68,0.045
25.695,0.057
25.71,-0.005
25.725,0.005
25.74,-0.002
25.755,-0.027
25.77,0.034
25.785,-0.031
25.8,-0.059
25.815,0.012
25.83,0.009
25.845,-0.02
25.86,-0.013
25.875,0.033
25.89,-0.018
25.905,0.026
25.92,0.008
25.935,-0.046
25.95,-0.031
25.965,-0.022
25.98,0.041
25.995,-0.013
26.01,0.012
26.025,-0.013
26.04,-0.079
26.055,-0.07
26.07,-0.057
26.085,-0.025
26.1,-0.039
26.115,-0.058
26.13,-0.034
26.145,0.002
26.16,0.013
26.175,0.003
26.19,0.012
26.205,0.064
26.22,-0.004
26.235,0.004
26.25,-0.002
26.265,0.015
26.28,0.016
26.295,0.019
26.31,0.016
26.325,-0.007
26.34,-0.063
26.355,-0.074
26.37,-0.016
26.385,-0.043
26.4,-0.036
26.415,0.009
26.43,-0.007
26.445,0.02
26.46,-0.045
26.475,-0.061
26.49,0.01
26.505,0.039
26.52,0.013
26.535,-0.043
26.55,-0.02
26.565,-0.03
26.58,-0.049
26.595,-0.014
26.61,0.07
26.625,0.01
26.64,-0.058
26.655,-0.009
26.67,0.045
26.685,-0.022
26.7,-0.027
26.715,-0.007
26.73,0.041
26.745,0.05
26.76,0.049
26.775,-0.021
26.79,-0.034
26.805,-0.038
26.82,0
26.835,-0.026
26.85,-0.01
26.865,0.022
26.88,0.008
26.895,0.007
26.91,-0.025
26.925,-0.079
26.94,0.017
26.955,0.046
26.97,-0.005
26.985,-0.026
27,-0.014
27.015,0.01
27.03,-0.007
27.045,-0.043
27.06,-0.05
27.075,-0.051
27.09,-0.034
27.105,-0.012
27.12,-0.02
27.135,0.03
27.15,0
27.165,-0.02
27.18,0.004
27.195,0.02
27.21,-0.037
27.225,-0.008
27.24,0.021
27.255,0.044
27.27,0.006
27.285,0.024
27.3,-0.006
27.315,-0.031
27.33,-0.057
27.345,-0.079
27.36,-0.029
27.375,0.014
27.39,-0.052
27.405,0.01
27.42,0.006
27.435,-0.019
27.45,-0.029
27.465,-0.061
27.48,-0.039
27.495,0.002
27.51,0.015
27.525,0.019
27.54,-0.008
27.555,-0.026
27.57,-0.002
27.585,0.019
27.6,-0.005
27.615,-0.029
27.63,-0.029
27.645,-0.079
27.66,-0.021
27.675,0.039
27.69,-0.014
27.705,-0.052
27.72,-0.037
27.735,-0.007
27.75,-0.026
27.765,-0.015
27.78,-0.045
27.795,-0.053
27.81,-0.055
27.825,-0.029
27.84,-0.021
27.855,0.021
27.87,-0.036
27.885,0
27.9,0.008
27.915,-0.037
27.93,-0.016
27.945,-0.015
27.96,-0.015
27.975,-0.004
27.99,-0.03
28.005,-0.022
28.02,-0.035
28.035,-0.054
28.05,-0.043
28.065,-0.057
28.08,-0.007
28.095,0.01
28.11,-0.003
28.125,-0.025
28.14,-0.053
28.155,-0.058
28.17,-0.022
28.185,-0.038
28.2,-0.06
28.215,-0.04
28.23,-0.026
28.245,-0.048
28.26,0
28.275,0.011
28.29,-0.05
28.305,-0.079
28.32,-0.047
28.335,-0.039
28.35,0.005
28.365,0.013
28.38,-0.04
28.395,-0.071
28.41,-0.048
28.425,-0.041
28.44,-0.025
28.455,-0.03
28.47,-0.049
28.485,-0.037
28.5,-0.028
28.515,-0.035
28.53,-0.046
28.545,-0.027
28.56,-0.019
28.575,-0.039
28.59,-0.014
28.605,-0.005
28.62,-0.053
28.635,-0.022
28.65,-0.035
28.665,0.012
28.68,0.046
28.695,0.007
28.71,-0.048
28.725,0.004
28.74,0.055
28.755,0.031
28.77,0.008
28.785,-0.011
28.8,0.032
28.815,0.017
28.83,0.024
28.845,-0.005
28.86,0.026
28.875,0.018
28.89,-0.019
28.905,0.051
28.92,0.06
28.935,0.032
28.95,0.02
28.965,0.037
28.98,-0.01
28.995,0.038
29.01,0.017
29.025,0.023
29.04,0.041
29.055,0.075
29.07,0.078
29.085,0.064
29.1,0.084
29.115,0.091
29.13,0.079
29.145,0.068
29.16,0.102
29.175,0.09
29.19,0.09
29.205,0.102
29.22,0.08
29.235,0.12
29.25,0.156
29.265,0.138
29.28,0.135
29.295,0.184
29.31,0.243
29.325,0.183
29.34,0.148
29.355,0.137
29.37,0.15
29.385,0.172
29.4,0.168
29.415,0.176
29.43,0.214
29.445,0.238
29.46,0.239
29.475,0.206
29.49,0.184
29.505,0.205
29.52,0.191
29.535,0.195
29.55,0.218
29.565,0.224
29.58,0.159
29.595,0.14
29.61,0.179
29.625,0.206
29.64,0.236
29.655,0.251
29.67,0.22
29.685,0.263
29.7,0.284
29.715,0.253
29.73,0.237
29.745,0.238
29.76,0.297
29.775,0.257
29.79,0.222
29.805,0.222
29.82,0.255
29.835,0.291
29.85,0.289
29.865,0.176
29.88,0.203
29.895,0.237
29.91,0.215
29.925,0.253
29.94,0.236
29.955,0.229
29.97,0.232
29.985,0.236
30,0.213
30.015,0.237
30.03,0.289
30.045,0.262
30.06,0.255
30.075,0.226
30.09,0.191
30.105,0.181
30.12,0.216
30.135,0.251
30.15,0.206
30.165,0.219
30.18,0.248
30.195,0.208
30.21,0.165
30.225,0.146
30.24,0.173
30.255,0.195
30.27,0.216
30.285,0.213
30.3,0.184
30.315,0.118
30.33,0.118
30.345,0.114
30.36,0.145
30.375,0.184
30.39,0.135
30.405,0.096
30.42,0.127
30.435,0.103
30.45,0.105
30.465,0.142
30.48,0.107
30.495,0.129
30.51,0.15
30.525,0.12
30.54,0.124
30.555,0.105
30.57,0.109
30.585,0.058
30.6,0.025
30.615,-0.015
30.63,0
30.645,0.027
30.66,0.038
30.675,0.024
30.69,0.035
30.705,0.067
30.72,0.048
30.735,0.001
30.75,0.034
30.765,0.039
30.78,0.032
30.795,0.057
30.81,0.001
30.825,0.034
30.84,0.004
30.855,0.004
30.87,0.017
30.885,0.031
30.9,-0.009
30.915,0.058
30.93,0.014
30.945,-0.01
30.96,0.004
30.975,-0.041
30.99,-0.008
31.005,0.019
31.02,-0.043
31.035,-0.058
31.05,-0.017
31.065,-0.032
31.08,-0.04
31.095,-0.045
31.11,-0.042
31.125,-0.023
31.14,0.024
31.155,0.002
31.17,-0.031
31.185,-0.004
31.2,0.006
31.215,0.004
31.23,0.02
31.245,-0.009
31.26,-0.024
31.275,-0.036
31.29,-0.009
31.305,-0.041
31.32,-0.064
31.335,-0.076
31.35,-0.047
31.365,-0.018
31.38,0.017
31.395,0.015
31.41,-0.042
31.425,-0.054
31.44,-0.026
31.455,-0.023
31.47,-0.014
31.485,-0.055
31.5,-0.079
31.515,-0.051
31.53,-0.015
31.545,-0.032
31.56,-0.068
31.575,-0.059
31.59,-0.067
31.605,-0.059
31.62,-0.007
31.635,-0.002
31.65,-0.046
31.665,-0.067
31.68,-0.079
31.695,-0.063
31.71,-0.045
31.725,-0.014
31.74,-0.003
31.755,-0.015
31.77,-0.006
31.785,0.014
31.8,-0.061
31.815,-0.038
31.83,0.049
31.845,0.057
31.86,0.013
31.875,-0.055
31.89,-0.079
31.905,-0.039
31.92,-0.057
31.935,-0.046
31.95,-0.007
31.965,-0.024
31.98,-0.001
31.995,0.01
32.01,-0.022
32.025,-0.041
32.04,-0.021
32.055,0.006
32.07,-0.008
32.085,-0.039
32.1,-0.061
32.115,-0.07
32.13,-0.042
32.145,-0.036
32.16,-0.033
32.175,0
32.19,-0.021
32.205,-0.031
32.22,-0.013
32.235,-0.005
32.25,-0.009
32.265,-0.027
32.28,-0.008
32.295,-0.018
32.31,-0.031
32.325,-0.046
32.34,-0.032
32.355,-0.023
32.37,-0.053
32.385,-0.054
32.4,-0.067
32.415,-0.072
32.43,-0.049
32.445,-0.025
32.46,-0.014
32.475,-0.079
32.49,-0.031
32.505,-0.013
32.52,-0.008
32.535,0.007
32.55,-0.03
32.565,0.01
32.58,-0.012
32.595,-0.024
32.61,-0.047
32.625,-0.074
32.64,-0.032
32.655,-0.034
32.67,-0.035
32.685,-0.031
32.7,-0.031
32.715,-0.051
32.73,-0.059
32.745,-0.06
32.76,0.006
32.775,-0.008
32.79,-0.056
32.805,-0.034
32.82,-0.028
32.835,-0.006
32.85,0.009
32.865,0.002
32.88,-0.034
32.895,-0.004
32.91,0.021
32.925,-0.022
32.94,-0.021
32.955,-0.01
32.97,-0.037
32.985,-0.01
33,-0.007
33.015,0.011
33.03,-0.012
33.045,0.05
33.06,0.022
33.075,-0.028
33.09,-0.064
33.105,-0.079
33.12,-0.014
33.135,0.042
33.15,-0.007
33.165,-0.002
33.18,-0.01
33.195,-0.016
33.21,0.023
33.225,0.035
33.24,0.003
33.255,0.015
33.27,0.071
33.285,0.046
33.3,0.06
33.315,0.034
33.33,0.028
33.345,0.044
33.36,-0.014
33.375,0.039
33.39,0.065
33.405,0.102
33.42,0.054
33.435,0.003
33.45,0.043
33.465,0.038
33.48,0.036
33.495,0.04
33.51,0.1
33.525,0.135
33.54,0.175
33.555,0.119
33.57,0.095
33.585,0.141
33.6,0.162
33.615,0.15
33.63,0.137
33.645,0.155
33.66,0.155
33.675,0.141
33.69,0.13
33.705,0.154
33.72,0.22
33.735,0.177
33.75,0.19
33.765,0.217
33.78,0.183
33.795,0.172
33.81,0.175
33.825,0.228
33.84,0.252
33.855,0.257
33.87,0.252
33.885,0.225
33.9,0.229
33.915,0.275
33.93,0.255
33.945,0.305
33.96,0.337
33.975,0.328
33.99,0.377
34.005,0.37
34.02,0.392
34.035,0.437
34.05,0.455
34.065,0.468
34.08,0.511
34.095,0.517
34.11,0.518
34.125,0.531
34.14,0.554
34.155,0.551
34.17,0.555
34.185,0.623
34.2,0.642
34.215,0.62
34.23,0.651
34.245,0.681
34.26,0.709
34.275,0.755
34.29,0.758
34.305,0.774
34.32,0.794
34.335,0.822
34.35,0.838
34.365,0.865
34.38,0.869
34.395,0.895
34.41,0.926
34.425,0.95
34.44,0.98
34.455,1.022
34.47,1.013
34.485,1.016
34.5,1.059
34.515,1.093
34.53,1.121
34.545,1.198
34.56,1.186
34.575,1.176
34.59,1.184
34.605,1.179
34.62,1.219
34.635,1.243
34.65,1.295
34.665,1.323
34.68,1.323
34.695,1.307
34.71,1.35
34.725,1.424
34.74,1.488
34.755,1.483
34.77,1.474
34.785,1.49
34.8,1.495
34.815,1.541
34.83,1.586
34.845,1.598
34.86,1.632
34.875,1.609
34.89,1.624
34.905,1.613
34.92,1.597
34.935,1.626
34.95,1.614
34.965,1.632
34.98,1.67
34.995,1.679
35.01,1.637
35.025,1.636
35.04,1.664
35.055,1.659
35.07,1.626
35.085,1.656
35.1,1.67
35.115,1.687
35.13,1.694
35.145,1.695
35.16,1.675
35.175,1.679
35.19,1.654
35.205,1.676
35.22,1.707
35.235,1.705
35.25,1.656
35.265,1.66
35.28,1.689
35.295,1.635
35.31,1.612
35.325,1.589
35.34,1.587
35.355,1.57
35.37,1.574
35.385,1.56
35.4,1.591
35.415,1.573
35.43,1.545
35.445,1.572
35.46,1.552
35.475,1.515
35.49,1.524
35.505,1.486
35.52,1.418
35.535,1.43
35.55,1.411
35.565,1.389
35.58,1.38
35.595,1.369
35.61,1.404
35.625,1.404
35.64,1.365
35.655,1.355
35.67,1.285
35.685,1.254
35.7,1.226
35.715,1.215
35.73,1.193
35.745,1.124
35.76,1.159
35.775,1.146
35.79,1.133
35.805,1.104
35.82,1.09
35.835,1.095
35.85,1.108
35.865,1.1
35.88,1.108
35.895,1.086
35.91,1.069
35.925,1.037
35.94,1.056
35.955,1.026
35.97,1.001
35.985,1.01
36,1.031
36.015,1.025
36.03,0.976
36.045,0.972
36.06,0.985
36.075,0.984
36.09,1.001
36.105,1
36.12,1.034
36.135,0.974
36.15,0.944
36.165,0.949
36.18,0.993
36.195,1.003
36.21,1.038
36.225,1.106
36.24,1.046
36.255,1.068
36.27,1.051
36.285,1.014
36.3,1.038
36.315,1.026
36.33,1.042
36.345,1.046
36.36,1.055
36.375,1.042
36.39,1.065
36.405,1.059
36.42,1.017
36.435,0.994
36.45,0.943
36.465,0.991
36.48,1.018
36.495,1.005
36.51,0.955
36.525,0.93
36.54,0.966
36.555,0.924
36.57,0.901
36.585,0.857
36.6,0.806
36.615,0.793
36.63,0.789
36.645,0.765
36.66,0.736
36.675,0.662
36.69,0.68
36.705,0.668
36.72,0.685
36.735,0.604
36.75,0.554
36.765,0.562
36.78,0.508
36.795,0.48
36.81,0.462
36.825,0.416
36.84,0.381
36.855,0.353
36.87,0.375
36.885,0.319
36.9,0.256
36.915,0.249
36.93,0.215
36.945,0.203
36.96,0.241
36.975,0.19
36.99,0.203
37.005,0.2
37.02,0.172
37.035,0.164
37.05,0.15
37.065,0.1
37.08,0.085
37.095,0.059
37.11,0.056
37.125,0.013
37.14,-0.013
37.155,0.023
37.17,0.013
37.185,-0.024
37.2,-0.006
37.215,-0.011
37.23,0.004
37.245,0.021
37.26,0.019
37.275,0.001
37.29,-0.013
37.305,-0.026
37.32,-0.021
37.335,-0.003
37.35,-0.004
37.365,0.003
37.38,-0.037
37.395,-0.033
37.41,0.004
37.425,-0.025
37.44,0.001
37.455,0.004
37.47,-0.029
37.485,-0.011
37.5,-0.044
37.515,-0.033
37.53,-0.001
37.545,-0.023
37.56,-0.054
37.575,-0.025
37.59,0.009
37.605,-0.02
37.62,-0.054
37.635,-0.053
37.65,-0.068
37.665,-0.045
37.68,-0.062
37.695,-0.048
37.71,-0.023
37.725,-0.002
37.74,-0.046
37.755,-0.078
37.77,-0.072
37.785,-0.043
37.8,-0.019
37.815,-0.025
37.83,-0.021
37.845,-0.006
37.86,-0.008
37.875,-0.05
37.89,-0.042
37.905,-0.004
37.92,-0.017
37.935,-0.017
37.95,-0.011
37.965,-0.056
37.98,-0.047
37.995,-0.065
38.01,-0.046
38.025,-0.055
38.04,-0.046
38.055,-0.01
38.07,-0.013
38.085,-0.078
38.1,-0.036
38.115,0.023
38.13,-0.008
38.145,-0.031
38.16,-0.016
38.175,-0.017
38.19,-0.046
38.205,-0.07
38.22,-0.06
38.235,-0.016
38.25,0.025
38.265,0.027
38.28,0.019
38.295,-0.014
38.31,-0.045
38.325,0.019
38.34,0.029
38.355,0.023
38.37,-0.03
38.385,-0.078
38.4,0.013
38.415,0.031
38.43,-0.028
38.445,-0.026
38.46,-0.039
38.475,-0.024
38.49,-0.021
38.505,-0.049
38.52,-0.007
38.535,0.02
38.55,-0.002
38.565,-0.026
38.58,-0.029
38.595,-0.016
38.61,-0.021
38.625,-0.058
38.64,-0.042
38.655,0.024
38.67,0.001
38.685,-0.047
38.7,-0.039
38.715,-0.035
38.73,0.023
38.745,0.049
38.76,-0.021
38.775,-0.064
38.79,-0.059
38.805,-0.015
38.82,-0.039
38.835,-0.025
38.85,0.027
38.865,-0.013
38.88,-0.023
38.895,-0.002
38.91,-0.008
38.925,-0.005
38.94,-0.011
38.955,-0.039
38.97,-0.01
38.985,0.022
39,-0.039
39.015,-0.07
39.03,-0.041
39.045,-0.052
39.06,-0.036
39.075,-0.017
39.09,0.038
39.105,0.048
39.12,0.014
39.135,-0.034
39.15,-0.07
39.165,-0.067
39.18,-0.003
39.195,0.052
39.21,0.027
39.225,-0.014
39.24,-0.038
39.255,-0.022
39.27,-0.034
39.285,-0.06
39.3,-0.023
39.315,-0.014
39.33,0.018
39.345,-0.035
39.36,-0.017
39.375,0.006
39.39,-0.01
39.405,-0.04
39.42,-0.025
39.435,-0.012
39.45,-0.032
39.465,-0.022
39.48,-0.033
39.495,0.014
39.51,0.015
39.525,-0.042
39.54,-0.065
39.555,0.026
39.57,-0.01
39.585,-0.068
39.6,-0.015
39.615,-0.004
39.63,-0.037
39.645,-0.078
39.66,-0.03
39.675,-0.024
39.69,-0.023
39.705,-0.013
39.72,0.023
39.735,-0.019
39.75,-0.059
39.765,-0.051
39.78,-0.078
39.795,-0.027
39.81,0.025
39.825,0.008
39.84,-0.002
39.855,0.032
39.87,0.034
39.885,-0.013
39.9,-0.021
39.915,-0.032
39.93,0.035
39.945,0.003
39.96,-0.029
39.975,-0.005
39.99,-0.023
40.005,-0.033
40.02,-0.014
40.035,0.042
40.05,0.001
40.065,-0.046
40.08,-0.039
40.095,-0.039
40.11,-0.002
40.125,0.006
40.14,0.008
40.155,-0.014
40.17,-0.023
40.185,-0.068
40.2,-0.058
40.215,-0.046
40.23,-0.034
40.245,-0.009
40.26,0.02
40.275,-0.002
40.29,0.008
40.305,-0.006
40.32,-0.064
40.335,-0.01
40.35,0.09
40.365,0.031
40.38,-0.045
40.395,-0.025
40.41,-0.005
40.425,-0.062
40.44,-0.078
40.455,-0.041
40.47,-0.015
40.485,0.011
40.5,-0.003
40.515,-0.002
40.53,0.018
40.545,-0.03
40.56,-0.027
40.575,0.005
40.59,-0.025
40.605,-0.043
40.62,-0.051
40.635,-0.059
40.65,-0.035
40.665,0.015
40.68,-0.032
40.695,-0.049
40.71,-0.012
40.725,-0.026
40.74,-0.008
40.755,-0.004
40.77,0.003
40.785,-0.06
40.8,-0.05
40.815,-0.006
40.83,-0.012
40.845,-0.008
40.86,-0.026
40.875,-0.053
40.89,-0.061
40.905,-0.078
40.92,-0.032
40.935,0.026
40.95,-0.033
40.965,-0.043
40.98,-0.009
40.995,-0.028
41.01,-0.041
41.025,-0.065
41.04,-0.043
41.055,-0.015
41.07,0.017
41.085,-0.019
41.1,-0.002
41.115,-0.016
41.13,-0.028
41.145,-0.004
41.16,0.077
41.175,0.086
41.19,0.093
41.205,0.071
41.22,0.11
41.235,0.12
41.25,0.1
41.265,0.085
41.28,0.081
41.295,0.103
41.31,0.115
41.325,0.189
41.34,0.204
41.355,0.146
41.37,0.17
41.385,0.219
41.4,0.215
41.415,0.281
41.43,0.303
41.445,0.28
41.46,0.287
41.475,0.351
41.49,0.355
41.505,0.315
41.52,0.32
41.535,0.366
41.55,0.376
41.565,0.387
41.58,0.396
41.595,0.408
41.61,0.408
41.625,0.398
41.64,0.46
41.655,0.439
41.67,0.461
41.685,0.442
41.7,0.436
41.715,0.452
41.73,0.487
41.745,0.478
41.76,0.485
41.775,0.487
41.79,0.515
41.805,0.493
41.82,0.501
41.835,0.501
41.85,0.541
41.865,0.546
41.88,0.551
41.895,0.588
41.91,0.588
41.925,0.557
41.94,0.574
41.955,0.587
41.97,0.592
41.985,0.603
42,0.653
42.015,0.69
42.03,0.659
42.045,0.677
42.06,0.754
42.075,0.8
42.09,0.818
42.105,0.808
42.12,0.878
42.135,0.958
42.15,0.995
42.165,0.999
42.18,1.021
42.195,1.078
42.21,1.123
42.225,1.168
42.24,1.287
42.255,1.29
42.27,1.323
42.285,1.355
42.3,1.346
42.315,1.395
42.33,1.496
42.345,1.545
42.36,1.626
42.375,1.656
42.39,1.71
42.405,1.702
42.42,1.654
42.435,1.686
42.45,1.75
42.465,1.835
42.48,1.842
42.495,1.773
42.51,1.806
42.525,1.766
42.54,1.769
42.555,1.812
42.57,1.832
42.585,1.78
42.6,1.71
42.615,1.69
42.63,1.664
42.645,1.644
42.66,1.598
42.675,1.563
42.69,1.563
42.705,1.502
42.72,1.464
42.735,1.404
42.75,1.326
42.765,1.304
42.78,1.278
42.795,1.205
42.81,1.137
42.825,1.073
42.84,0.991
42.855,0.939
42.87,0.887
42.885,0.828
42.9,0.816
42.915,0.757
42.93,0.678
42.945,0.644
42.96,0.643
42.975,0.572
42.99,0.517
43.005,0.46
43.02,0.506
43.035,0.475
43.05,0.421
43.065,0.414
43.08,0.367
43.095,0.327
43.11,0.329
43.125,0.292
43.14,0.315
43.155,0.324
43.17,0.286
43.185,0.238
43.2,0.244
43.215,0.245
43.23,0.236
43.245,0.246
43.26,0.251
43.275,0.254
43.29,0.237
43.305,0.229
43.32,0.207
43.335,0.186
43.35,0.163
43.365,0.186
43.38,0.187
43.395,0.201
43.41,0.197
43.425,0.182
43.44,0.126
43.455,0.101
43.47,0.128
43.485,0.071
43.5,0.086
43.515,0.101
43.53,0.057
43.545,0.102
43.56,0.132
43.575,0.081
43.59,0.059
43.605,0.057
43.62,0.08
43.635,0.051
43.65,0.038
43.665,0.049
43.68,0.069
43.695,0.01
43.71,0.017
43.725,0.005
43.74,-0.022
43.755,-0.007
43.77,-0.004
43.785,-0.024
43.8,-0.016
43.815,-0.016
43.83,-0.031
43.845,-0.025
43.86,0.006
43.875,-0.005
43.89,-0.032
43.905,-0.045
43.92,-0.013
43.935,-0.029
43.95,-0.006
43.965,0.006
43.98,0.009
43.995,0.028
44.01,-0.005
44.025,-0.009
44.04,-0.021
44.055,-0.019
44.07,0.01
44.085,0.032
44.1,-0.028
44.115,-0.026
44.13,0.006
44.145,-0.039
44.16,-0.078
44.175,-0.039
44.19,0.029
44.205,-0.007
44.22,-0.045
44.235,-0.045
44.25,-0.077
44.265,-0.075
44.28,-0.001
44.295,0.009
44.31,-0.021
44.325,-0.017
44.34,-0.012
44.355,-0.025
44.37,-0.03
44.385,-0.012
44.4,0.045
44.415,-0.004
44.43,0.016
44.445,0.017
44.46,0
44.475,-0.041
44.49,-0.077
44.505,-0.022
44.52,-0.026
44.535,-0.027
44.55,-0.038
44.565,-0.004
44.58,0.055
44.595,0.046
44.61,0.017
44.625,0.042
44.64,-0.005
44.655,-0.016
44.67,0.06
44.685,0.052
44.7,-0.008
44.715,-0.009
44.73,-0.023
44.745,-0.006
44.76,-0.04
44.775,-0.024
44.79,-0.039
44.805,-0.052
44.82,-0.032
44.835,-0.006
44.85,-0.019
44.865,-0.061
44.88,-0.029
44.895,0.016
44.91,-0.002
44.925,-0.006
44.94,-0.013
44.955,-0.05
44.97,-0.02
44.985,-0.021
45,-0.044
45.015,-0.013
45.03,0.009
45.045,-0.001
45.06,-0.005
45.075,-0.039
45.09,-0.01
45.105,0.013
45.12,0.018
45.135,0.005
45.15,-0.014
45.165,-0.032
45.18,-0.002
45.195,0.004
45.21,-0.023
45.225,-0.023
45.24,-0.02
45.255,-0.027
45.27,-0.028
45.285,-0.011
45.3,-0.012
45.315,-0.077
45.33,-0.029
45.345,-0.001
45.36,0.012
45.375,0.035
45.39,-0.002
45.405,-0.011
45.42,-0.022
45.435,-0.022
45.45,0.021
45.465,0.002
45.48,-0.009
45.495,-0.047
45.51,-0.067
45.525,-0.021
45.54,-0.042
45.555,-0.014
45.57,-0.016
45.585,-0.049
45.6,0.001
45.615,0.034
45.63,-0.065
45.645,-0.045
45.66,0.039
45.675,0.011
45.69,-0.02
45.705,-0.038
45.72,-0.029
45.735,-0.015
45.75,-0.007
45.765,-0.017
45.78,-0.037
45.795,-0.041
45.81,0.017
45.825,0.042
45.84,0.002
45.855,-0.018
45.87,-0.051
45.885,-0.046
45.9,-0.028
45.915,-0.032
45.93,-0.057
45.945,-0.036
45.96,-0.018
45.975,-0.035
45.99,-0.069
46.005,-0.041
46.02,-0.026
46.035,-0.014
46.05,0.008
46.065,-0.009
46.08,-0.015
46.095,-0.029
46.11,-0.002
46.125,0.036
46.14,-0.026
46.155,-0.063
46.17,-0.019
46.185,0.012
46.2,-0.018
46.215,-0.018
46.23,-0.035
46.245,-0.077
46.26,0.009
46.275,0.059
46.29,0.006
46.305,0.023
46.32,0.015
46.335,0.015
46.35,0.024
46.365,-0.019
46.38,-0.076
46.395,-0.052
46.41,-0.012
46.425,-0.013
46.44,-0.018
46.455,-0.024
46.47,-0.012
46.485,-0.036
46.5,-0.006
46.515,-0.031
46.53,-0.04
46.545,-0.013
46.56,-0.042
46.575,-0.073
46.59,-0.022
46.605,-0.027
46.62,-0.065
46.635,-0.043
46.65,-0.051
46.665,-0.04
46.68,-0.065
46.695,-0.077
46.71,-0.017
46.725,-0.04
46.74,-0.038
46.755,-0.056
46.77,-0.046
46.785,-0.023
46.8,0.026
46.815,0.003
46.83,-0.019
46.845,-0.046
46.86,-0.014
46.875,0.008
46.89,0.014
46.905,-0.013
46.92,-0.013
46.935,-0.034
46.95,-0.066
46.965,-0.048
46.98,-0.011
46.995,-0.043
47.01,-0.007
47.025,-0.043
47.04,-0.07
47.055,-0.052
47.07,-0.054
47.085,-0.072
47.1,-0.069
47.115,-0.043
47.13,-0.047
47.145,-0.037
47.16,-0.018
47.175,-0.021
47.19,-0.036
47.205,-0.057
47.22,-0.077
47.235,-0.015
47.25,-0.009
47.265,-0.015
47.28,-0.009
47.295,0.005
47.31,-0.028
47.325,-0.013
47.34,-0.046
47.355,-0.06
47.37,-0.063
47.385,-0.05
47.4,-0.025
47.415,-0.017
47.43,-0.052
47.445,-0.033
47.46,-0.061
47.475,-0.04
47.49,-0.043
47.505,-0.069
47.52,-0.057
47.535,-0.067
47.55,-0.073
47.565,-0.015
47.58,-0.039
47.595,-0.001
47.61,-0.004
47.625,-0.004
47.64,-0.031
47.655,-0.067
47.67,-0.077
47.685,-0.024
47.7,-0.01
47.715,-0.058
47.73,-0.021
47.745,-0.014
47.76,-0.028
47.775,-0.061
47.79,-0.021
47.805,-0.023
47.82,-0.042
47.835,-0.052
47.85,-0.053
47.865,-0.02
47.88,-0.04
47.895,-0.047
47.91,-0.077
47.925,-0.061
47.94,-0.016
47.955,-0.015
47.97,-0.028
47.985,-0.006
48,0.02
48.015,-0.002
48.03,-0.012
48.045,0.001
48.06,-0.022
48.075,-0.037
48.09,-0.033
48.105,-0.043
48.12,-0.049
48.135,-0.006
48.15,0.032
48.165,-0.05
48.18,-0.058
48.195,-0.035
48.21,-0.039
48.225,-0.009
48.24,0.019
48.255,-0.007
48.27,0.009
48.285,0.021
48.3,-0.023
48.315,-0.028
48.33,-0.026
48.345,-0.039
48.36,-0.048
48.375,-0.024
48.39,-0.037
48.405,-0.077
48.42,-0.022
48.435,0.004
48.45,0.003
48.465,0.01
48.48,0.005
48.495,-0.01
48.51,-0.024
48.525,-0.011
48.54,0.021
48.555,0.046
48.57,0.042
48.585,0.023
48.6,0.046
48.615,0.034
48.63,-0.006
48.645,-0.056
48.66,-0.011
48.675,-0.005
48.69,-0.014
48.705,0.014
48.72,0.006
48.735,0.01
48.75,0.005
48.765,-0.017
48.78,-0.005
48.795,-0.011
48.81,0.008
48.825,-0.006
48.84,0.008
48.855,0.021
48.87,0.063
48.885,0.075
48.9,0.024
48.915,-0.018
48.93,0.004
48.945,0.021
48.96,0.049
48.975,0.04
48.99,0.037
49.005,-0.007
49.02,-0.019
49.035,-0.077
49.05,-0.03
49.065,0.01
49.08,0.002
49.095,-0.077
49.11,-0.04
49.125,0.009
49.14,0.03
49.155,-0.008
49.17,-0.008
49.185,-0.008
49.2,0.021
49.215,0.028
49.23,0.003
49.245,-0.004
49.26,-0.032
49.275,-0.051
49.29,0.005
49.305,0.015
49.32,0.004
49.335,-0.006
49.35,0.023
49.365,0.019
49.38,-0.048
49.395,-0.023
49.41,0.024
49.425,-0.009
49.44,-0.058
49.455,-0.011
49.47,0.005
49.485,-0.019
49.5,-0.044
49.515,-0.077
49.53,-0.06
49.545,-0.02
49.56,0.057
49.575,0.036
49.59,-0.044
49.605,-0.021
49.62,-0.02
49.635,-0.025
49.65,-0.009
49.665,-0.013
49.68,-0.013
49.695,0.009
49.71,0.003
49.725,-0.014
49.74,-0.023
49.755,0.02
49.77,0.029
49.785,0.01
49.8,-0.035
49.815,-0.014
49.83,0.002
49.845,-0.043
49.86,-0.025
49.875,-0.015
49.89,-0.039
49.905,0.018
49.92,0.019
49.935,-0.052
49.95,-0.017
49.965,0.054
49.98,-0.006
49.995,-0.02
50.01,0.036
50.025,0.018
50.04,-0.015
50.055,-0.048
50.07,-0.04
50.085,0.019
50.1,-0.009
50.115,-0.018
50.13,0.014
50.145,-0.02
50.16,-0.021
50.175,-0.034
50.19,-0.011
50.205,-0.024
50.22,-0.034
50.235,-0.043
50.25,-0.04
50.265,-0.028
50.28,-0.038
50.295,-0.077
50.31,-0.039
50.325,-0.016
50.34,-0.038
50.355,-0.034
50.37,-0.028
50.385,-0.017
50.4,-0.026
50.415,-0.018
50.43,-0.026
50.445,-0.022
50.46,-0.016
50.475,-0.039
50.49,-0.06
50.505,-0.038
50.52,-0.016
50.535,-0.026
50.55,-0.024
50.565,0.02
50.58,-0.013
50.595,-0.026
50.61,-0.055
50.625,-0.018
50.64,0.009
50.655,-0.03
50.67,-0.039
50.685,-0.059
50.7,-0.048
50.715,-0.029
50.73,-0.044
50.745,-0.063
50.76,-0.032
50.775,-0.035
50.79,-0.036
50.805,-0.026
50.82,0.02
50.835,0.011
50.85,-0.035
50.865,-0.025
50.88,-0.077
50.895,-0.061
50.91,-0.034
50.925,-0.041
50.94,-0.033
50.955,-0.021
50.97,-0.025
50.985,-0.035
51,-0.034
51.015,0.007
51.03,0.03
51.045,0.055
51.06,0.019
51.075,-0.003
51.09,0.006
51.105,-0.034
51.12,-0.077
51.135,-0.017
51.15,-0.027
51.165,-0.02
51.18,-0.002
51.195,0.001
51.21,0.045
51.225,-0.002
51.24,-0.061
51.255,-0.034
51.27,-0.029
51.285,-0.052
51.3,-0.017
51.315,-0.001
51.33,0.03
51.345,0.032
51.36,0
51.375,0.019
51.39,0.018
51.405,0.012
51.42,-0.053
51.435,-0.015
51.45,0.03
51.465,-0.034
51.48,-0.077
51.495,0.009
51.51,0.026
51.525,-0.018
51.54,0.003
51.555,0.027
51.57,0.039
51.585,-0.027
51.6,-0.029
51.615,-0.024
51.63,-0.027
51.645,0.01
51.66,-0.032
51.675,-0.009
51.69,0.008
51.705,0.017
51.72,0.031
51.735,-0.017
51.75,-0.04
51.765,-0.001
51.78,-0.002
51.795,0.016
51.81,-0.029
51.825,-0.044
51.84,0.005
51.855,0.041
51.87,0.025
51.885,0.033
51.9,0.04
51.915,-0.02
51.93,-0.028
51.945,0.015
51.96,0.018
51.975,-0.003
51.99,-0.004
52.005,0.024
52.02,0.041
52.035,-0.004
52.05,0.019
52.065,0.02
52.08,-0.013
52.095,-0.043
52.11,-0.077
52.125,-0.057
52.14,0.018
52.155,0.027
52.17,0.023
52.185,0.05
52.2,0.04
52.215,0.007
52.23,0.005
52.245,-0.01
52.26,-0.04
52.275,0.01
52.29,0.025
52.305,0.043
52.32,0.032
52.335,-0.03
52.35,-0.066
52.365,-0.009
52.38,-0.03
52.395,-0.029
52.41,0.007
52.425,-0.008
52.44,-0.033
52.455,-0.012
52.47,0.003
52.485,0.003
52.5,0.01
52.515,0.015
52.53,-0.068
52.545,-0.071
52.56,-0.059
52.575,-0.018
52.59,-0.02
52.605,-0.059
52.62,-0.066
52.635,-0.049
52.65,-0.033
52.665,-0.067
52.68,-0.003
52.695,0.034
52.71,-0.029
52.725,-0.012
52.74,0.002
52.755,-0.018
52.77,-0.013
52.785,-0.038
52.8,-0.008
52.815,0.011
52.83,0.005
52.845,0
52.86,-0.03
52.875,0.004
52.89,0.012
52.905,-0.031
52.92,-0.042
52.935,-0.005
52.95,0.004
52.965,0.02
52.98,-0.023
52.995,-0.06
53.01,-0.055
53.025,-0.007
53.04,-0.01
53.055,-0.031
53.07,-0.059
53.085,-0.048
53.1,-0.039
53.115,-0.011
53.13,-0.014
53.145,-0.044
53.16,-0.013
53.175,-0.02
53.19,-0.036
53.205,-0.077
53.22,-0.078
53.235,-0.032
53.25,0.006
53.265,0.008
53.28,0.027
53.295,-0.005
53.31,-0.043
53.325,-0.047
53.34,-0.028
53.355,-0.026
53.37,-0.05
53.385,0.006
53.4,0.024
53.415,-0.052
53.43,-0.02
53.445,-0.053
53.46,-0.055
53.475,-0.016
53.49,0.019
53.505,0
53.52,-0.016
53.535,0
53.55,-0.011
53.565,-0.034
53.58,-0.074
53.595,-0.053
53.61,0.001
53.625,0.035
53.64,0.009
53.655,-0.002
53.67,-0.028
53.685,-0.01
53.7,0.013
53.715,0.022
53.73,-0.006
53.745,-0.025
53.76,-0.012
53.775,0.012
53.79,-0.007
53.805,-0.019
53.82,-0.017
53.835,-0.043
53.85,-0.032
53.865,-0.044
53.88,-0.028
53.895,-0.028
53.91,0.026
53.925,-0.016
53.94,-0.038
53.955,-0.059
53.97,-0.07
53.985,-0.024
54,0.004
54.015,0.01
54.03,-0.029
54.045,-0.05
54.06,-0.016
54.075,0.003
54.09,-0.025
54.105,-0.058
54.12,-0.078
54.135,-0.052
54.15,-0.02
54.165,0.004
54.18,-0.039
54.195,-0.042
54.21,-0.004
54.225,-0.012
54.24,-0.017
54.255,-0.023
54.27,-0.014
54.285,-0.014
54.3,0.033
54.315,0.017
54.33,-0.018
54.345,-0.029
54.36,-0.049
54.375,-0.031
54.39,-0.033
54.405,-0.078
54.42,-0.021
54.435,-0.02
54.45,-0.036
54.465,-0.039
54.48,-0.028
54.495,0.014
54.51,0.007
54.525,-0.021
54.54,-0.009
54.555,-0.017
54.57,-0.006
54.585,-0.024
54.6,-0.065
54.615,-0.066
54.63,-0.06
54.645,-0.069
54.66,-0.03
54.675,0.006
54.69,-0.035
54.705,-0.073
54.72,-0.069
54.735,-0.024
54.75,-0.021
54.765,-0.027
54.78,-0.003
54.795,-0.001
54.81,0.005
54.825,-0.078
54.84,-0.071
54.855,-0.034
54.87,-0.007
54.885,-0.017
54.9,-0.035
54.915,-0.035
54.93,-0.034
54.945,0.003
54.96,-0.029
54.975,-0.037
54.99,-0.036
55.005,-0.033
55.02,-0.026
55.035,-0.053
55.05,-0.011
55.065,-0.04
55.08,-0.043
55.095,-0.067
55.11,-0.055
55.125,-0.024
55.14,-0.019
55.155,-0.047
55.17,-0.048
55.185,-0.031
55.2,-0.002
55.215,-0.022
55.23,-0.078
55.245,-0.049
55.26,-0.024
55.275,-0.026
55.29,-0.043
55.305,-0.044
55.32,-0.029
55.335,0.006
55.35,-0.034
55.365,-0.043
55.38,0.002
55.395,0.041
55.41,0.03
55.425,0.018
55.44,-0.007
55.455,-0.017
55.47,-0.051
55.485,-0.05
55.5,-0.015
55.515,0.01
55.53,0.022
55.545,0.007
55.56,-0.014
55.575,0.028
55.59,-0.006
55.605,-0.005
55.62,0.004
55.635,0.038
55.65,0.02
55.665,0.024
55.68,0.013
55.695,0.033
55.71,0.034
55.725,-0.006
55.74,-0.011
55.755,-0.019
55.77,-0.008
55.785,0.011
55.8,0.062
55.815,0.052
55.83,0.085
55.845,0.06
55.86,0.009
55.875,0.044
55.89,0.054
55.905,0.092
55.92,0.106
55.935,0.088
55.95,0.09
55.965,0.075
55.98,0.07
55.995,0.116
56.01,0.138
56.025,0.099
56.04,0.091
56.055,0.085
56.07,0.098
56.085,0.116
56.1,0.095
56.115,0.142
56.13,0.134
56.145,0.081
56.16,0.093
56.175,0.133
56.19,0.12
56.205,0.119
56.22,0.146
56.235,0.149
56.25,0.171
56.265,0.207
56.28,0.229
56.295,0.214
56.31,0.166
56.325,0.155
56.34,0.131
56.355,0.122
56.37,0.135
56.385,0.134
56.4,0.154
56.415,0.167
56.43,0.175
56.445,0.176
56.46,0.152
56.475,0.113
56.49,0.152
56.505,0.192
56.52,0.188
56.535,0.174
56.55,0.175
56.565,0.183
56.58,0.18
56.595,0.141
56.61,0.163
56.625,0.203
56.64,0.162
56.655,0.164
56.67,0.178
56.685,0.165
56.7,0.201
56.715,0.284
56.73,0.247
56.745,0.169
56.76,0.203
56.775,0.182
56.79,0.184
56.805,0.146
56.82,0.105
56.835,0.175
56.85,0.205
56.865,0.194
56.88,0.183
56.895,0.161
56.91,0.194
56.925,0.218
56.94,0.195
56.955,0.149
56.97,0.175
56.985,0.226
57,0.215
57.015,0.171
57.03,0.153
57.045,0.151
57.06,0.124
57.075,0.152
57.09,0.14
57.105,0.13
57.12,0.177
57.135,0.19
57.15,0.146
57.165,0.157
57.18,0.169
57.195,0.162
57.21,0.159
57.225,0.144
57.24,0.164
57.255,0.12
57.27,0.139
57.285,0.127
57.3,0.113
57.315,0.123
57.33,0.143
57.345,0.105
57.36,0.125
57.375,0.134
57.39,0.079
57.405,0.128
57.42,0.124
57.435,0.064
57.45,0.102
57.465,0.072
57.48,0.056
57.495,0.043
57.51,0.017
57.525,0.072
57.54,0.064
57.555,0.042
57.57,0.077
57.585,0.024
57.6,0.045
57.615,0.062
57.63,0.062
57.645,0.075
57.66,0.062
57.675,0.042
57.69,0.043
57.705,0.046
57.72,0.003
57.735,0.042
57.75,0.037
57.765,-0.002
57.78,-0.002
57.795,0.017
57.81,0.014
57.825,0.046
57.84,0.067
57.855,0.015
57.87,0.006
57.885,0.021
57.9,-0.013
57.915,0
57.93,0.005
57.945,0.004
57.96,-0.004
57.975,-0.025
57.99,-0.002
58.005,0.012
58.02,-0.001
58.035,-0.008
58.05,0.019
58.065,-0.017
58.08,-0.001
58.095,0.021
58.11,0.008
58.125,0.013
58.14,-0.001
58.155,-0.003
58.17,-0.024
58.185,0.009
58.2,-0.014
58.215,-0.038
58.23,-0.067
58.245,-0.053
58.26,-0.024
58.275,-0.041
58.29,-0.041
58.305,0.016
58.32,0.017
58.335,-0.012
58.35,-0.003
58.365,0.013
58.38,-0.038
58.395,-0.077
58.41,-0.077
58.425,-0.067
58.44,-0.048
58.455,-0.07
58.47,-0.026
58.485,-0.009
58.5,-0.027
58.515,-0.068
58.53,-0.06
58.545,-0.065
58.56,-0.05
58.575,-0.025
58.59,-0.056
58.605,-0.069
58.62,-0.047
58.635,-0.026
58.65,-0.006
58.665,-0.022
58.68,-0.047
58.695,-0.003
58.71,-0.027
58.725,-0.058
58.74,-0.077
58.755,-0.048
58.77,-0.025
58.785,-0.035
58.8,-0.059
58.815,-0.054
58.83,-0.077
58.845,-0.043
58.86,-0.027
58.875,-0.066
58.89,-0.066
58.905,-0.033
58.92,-0.017
58.935,-0.012
58.95,-0.019
58.965,-0.036
58.98,-0.008
58.995,-0.019
59.01,-0.058
59.025,-0.067
59.04,-0.041
59.055,-0.037
59.07,0.008
59.085,-0.007
59.1,-0.048
59.115,-0.04
59.13,-0.007
59.145,-0.058
59.16,-0.038
59.175,-0.037
59.19,-0.077
59.205,-0.068
59.22,-0.048
59.235,-0.012
59.25,-0.027
59.265,-0.037
59.28,-0.01
59.295,0.017
59.31,0
59.325,-0.03
59.34,-0.03
59.355,-0.01
59.37,-0.043
59.385,-0.043
59.4,-0.004
59.415,-0.016
59.43,-0.005
59.445,0.004
59.46,0.022
59.475,-0.008
59.49,-0.057
59.505,-0.052
59.52,-0.03
59.535,-0.061
59.55,-0.063
59.565,-0.02
59.58,0.006
59.595,-0.011
59.61,-0.018
59.625,-0.017
59.64,0.004
59.655,-0.021
59.67,-0.03
59.685,0.006
59.7,-0.025
59.715,-0.044
59.73,-0.036
59.745,-0.024
59.76,-0.03
59.775,-0.046
59.79,-0.077
59.805,-0.04
59.82,-0.017
59.835,-0.012
59.85,-0.043
59.865,-0.033
59.88,0.029
59.895,0.031
59.91,0.003
59.925,0.016
59.94,-0.02
59.955,-0.053
59.97,-0.008
59.985,-0.036
60,-0.075
60.015,-0.047
60.03,-0.072
60.045,-0.072
60.06,-0.027
60.075,-0.035
60.09,-0.032
60.105,-0.044
60.12,-0.043
60.135,-0.002
60.15,-0.046
60.165,-0.059
60.18,-0.029
60.195,-0.041
60.21,-0.036
60.225,-0.027
60.24,-0.001
60.255,-0.005
60.27,-0.018
60.285,-0.022
60.3,0.003
60.315,0.017
60.33,0.034
60.345,0.006
60.36,-0.003
60.375,0.016
60.39,0.081
60.405,0.095
60.42,0.076
60.435,0.092
60.45,0.119
60.465,0.091
60.48,0.072
60.495,0.099
60.51,0.124
60.525,0.183
60.54,0.138
60.555,0.115
60.57,0.121
60.585,0.14
60.6,0.163
60.615,0.114
60.63,0.12
60.645,0.135
60.66,0.129
60.675,0.145
60.69,0.176
60.705,0.204
60.72,0.195
60.735,0.232
60.75,0.189
60.765,0.147
60.78,0.161
60.795,0.162
60.81,0.197
60.825,0.209
60.84,0.175
60.855,0.198
60.87,0.182
60.885,0.149
60.9,0.15
60.915,0.133
60.93,0.13
60.945,0.085
60.96,0.097
60.975,0.121
60.99,0.137
61.005,0.099
61.02,0.084
61.035,0.083
61.05,0.079
61.065,0.134
61.08,0.142
61.095,0.112
61.11,0.111
61.125,0.143
61.14,0.13
61.155,0.163
61.17,0.135
61.185,0.118
61.2,0.124
61.215,0.143
61.23,0.145
61.245,0.183
61.26,0.22
61.275,0.236
61.29,0.243
61.305,0.237
61.32,0.244
61.335,0.24
61.35,0.271
61.365,0.366
61.38,0.402
61.395,0.442
61.41,0.422
61.425,0.443
61.44,0.477
61.455,0.549
61.47,0.605
61.485,0.644
61.5,0.703
61.515,0.736
61.53,0.76
61.545,0.857
61.56,0.946
61.575,0.967
61.59,0.991
61.605,1.015
61.62,1.081
61.635,1.202
61.65,1.238
61.665,1.325
61.68,1.315
61.695,1.357
61.71,1.421
61.725,1.467
61.74,1.56
61.755,1.551
61.77,1.566
61.785,1.653
61.8,1.738
61.815,1.767
61.83,1.751
61.845,1.778
61.86,1.824
61.875,1.852
61.89,1.888
61.905,1.926
61.92,1.909
61.935,1.879
61.95,1.881
61.965,1.928
61.98,1.914
61.995,1.893
62.01,1.833
62.025,1.826
62.04,1.845
62.055,1.856
62.07,1.765
62.085,1.733
62.1,1.715
62.115,1.728
62.13,1.685
62.145,1.681
62.16,1.685
62.175,1.645
62.19,1.558
62.205,1.481
62.22,1.472
62.235,1.446
62.25,1.399
62.265,1.334
62.28,1.274
62.295,1.255
62.31,1.216
62.325,1.217
62.34,1.175
62.355,1.174
62.37,1.167
62.385,1.118
62.4,1.054
62.415,1.005
62.43,0.992
62.445,0.922
62.46,0.88
62.475,0.87
62.49,0.832
62.505,0.802
62.52,0.841
62.535,0.776
62.55,0.741
62.565,0.726
62.58,0.742
62.595,0.734
62.61,0.741
62.625,0.689
62.64,0.661
62.655,0.641
62.67,0.623
62.685,0.646
62.7,0.614
62.715,0.586
62.73,0.54
62.745,0.46
62.76,0.513
62.775,0.495
62.79,0.456
62.805,0.503
62.82,0.534
62.835,0.47
62.85,0.444
62.865,0.432
62.88,0.403
62.895,0.423
62.91,0.424
62.925,0.344
62.94,0.337
62.955,0.339
62.97,0.286
62.985,0.294
63,0.3
63.015,0.295
63.03,0.297
63.045,0.292
63.06,0.302
63.075,0.236
63.09,0.217
63.105,0.221
63.12,0.199
63.135,0.181
63.15,0.222
63.165,0.199
63.18,0.213
63.195,0.209
63.21,0.171
63.225,0.19
63.24,0.187
63.255,0.115
63.27,0.18
63.285,0.203
63.3,0.133
63.315,0.112
63.33,0.107
63.345,0.122
63.36,0.122
63.375,0.083
63.39,0.049
63.405,0.069
63.42,0.057
63.435,0.027
63.45,0.027
63.465,0.057
63.48,0.021
63.495,0.034
63.51,0.063
63.525,0.091
63.54,0.043
63.555,0.031
63.57,0.075
63.585,-0.014
63.6,0.004
63.615,0.018
63.63,0.024
63.645,-0.024
63.66,-0.021
63.675,-0.003
63.69,-0.041
63.705,-0.036
63.72,-0.041
63.735,0.009
63.75,0.055
63.765,0.032
63.78,-0.001
63.795,-0.002
63.81,-0.033
63.825,-0.042
63.84,-0.038
63.855,0
63.87,0.014
63.885,-0.009
63.9,0.01
63.915,0.016
63.93,-0.013
63.945,-0.033
63.96,0.003
63.975,0.031
63.99,-0.006
64.005,-0.055
64.02,-0.077
64.035,-0.024
64.05,0.033
64.065,0.04
64.08,0.026
64.095,0.015
64.11,-0.016
64.125,-0.043
64.14,-0.013
64.155,-0.003
64.17,-0.025
64.185,-0.003
64.2,-0.014
64.215,-0.045
64.23,-0.057
64.245,-0.039
64.26,-0.002
64.275,-0.021
64.29,-0.022
64.305,-0.022
64.32,0.032
64.335,0.001
64.35,-0.06
64.365,-0.034
64.38,-0.052
64.395,-0.077
64.41,-0.052
64.425,-0.054
64.44,-0.057
64.455,-0.061
64.47,-0.018
64.485,-0.032
64.5,-0.06
64.515,-0.045
64.53,-0.044
64.545,-0.076
64.56,-0.034
64.575,-0.028
64.59,-0.064
64.605,-0.054
64.62,-0.007
64.635,0.024
64.65,-0.041
64.665,-0.061
64.68,-0.025
64.695,-0.036
64.71,-0.054
64.725,0.021
64.74,-0.002
64.755,-0.046
64.77,-0.006
64.785,-0.017
64.8,0.004
64.815,0.017
64.83,-0.045
64.845,-0.056
64.86,-0.052
64.875,-0.071
64.89,-0.052
64.905,-0.077
64.92,-0.057
64.935,-0.044
64.95,-0.053
64.965,-0.043
64.98,-0.03
64.995,-0.032
65.01,-0.036
65.025,-0.039
65.04,-0.019
65.055,-0.035
65.07,-0.04
65.085,-0.034
65.1,-0.007
65.115,0.01
65.13,-0.015
65.145,-0.011
65.16,-0.013
65.175,-0.019
65.19,-0.009
65.205,-0.031
65.22,-0.063
65.235,-0.064
65.25,-0.071
65.265,-0.077
65.28,-0.047
65.295,0.006
65.31,-0.011
65.325,-0.05
65.34,-0.036
65.355,-0.046
65.37,-0.06
65.385,0.023
65.4,0.039
65.415,0.004
65.43,-0.049
65.445,-0.059
65.46,-0.025
65.475,0
65.49,-0.032
65.505,-0.054
65.52,-0.043
65.535,-0.021
65.55,-0.02
65.565,-0.013
65.58,-0.01
65.595,-0.037
65.61,-0.022
65.625,0.001
65.64,-0.028
65.655,-0.011
65.67,0.006
65.685,0.009
65.7,-0.041
65.715,-0.011
65.73,0.037
65.745,0.008
65.76,-0.017
65.775,-0.007
65.79,-0.011
65.805,-0.015
65.82,0.02
65.835,0.021
65.85,-0.021
65.865,-0.037
65.88,-0.005
65.895,-0.022
65.91,-0.005
65.925,-0.034
65.94,-0.017
65.955,-0.012
65.97,-0.006
65.985,0.007
66,-0.005
66.015,0.032
66.03,0.024
66.045,-0.017
66.06,0.017
66.075,0.04
66.09,0.009
66.105,0.027
66.12,0.043
66.135,0.054
66.15,0.027
66.165,0.007
66.18,-0.018
66.195,-0.077
66.21,-0.01
66.225,0.062
66.24,0.058
66.255,0.055
66.27,0.032
66.285,0.016
66.3,0.011
66.315,0.002
66.33,0.003
66.345,0.016
66.36,0.028
66.375,-0.025
66.39,0.001
66.405,0.052
66.42,0.005
66.435,-0.01
66.45,-0.011
66.465,-0.021
66.48,0.002
66.495,0.017
66.51,-0.001
66.525,-0.018
66.54,-0.063
66.555,-0.057
66.57,0
66.585,0.017
66.6,0.03
66.615,0.023
66.63,0.016
66.645,0.034
66.66,-0.002
66.675,-0.024
66.69,-0.015
66.705,0.012
66.72,0.032
66.735,0.03
66.75,0.021
66.765,-0.011
66.78,0.012
66.795,0.033
66.81,-0.006
66.825,-0.033
66.84,-0.002
66.855,-0.048
66.87,-0.067
66.885,-0.053
66.9,-0.077
66.915,-0.018
66.93,0.067
66.945,0.049
66.96,-0.01
66.975,0.013
66.99,0.032
67.005,-0.018
67.02,-0.017
67.035,0.017
67.05,-0.006
67.065,-0.018
67.08,-0.008
67.095,-0.068
67.11,-0.053
67.125,0.018
67.14,0.011
67.155,-0.019
67.17,-0.021
67.185,-0.055
67.2,-0.076
67.215,-0.045
67.23,-0.044
67.245,-0.035
67.26,-0.042
67.275,-0.02
67.29,0.003
67.305,-0.007
67.32,-0.027
67.335,-0.008
67.35,-0.011
67.365,-0.02
67.38,-0.032
67.395,-0.062
67.41,-0.043
67.425,-0.005
67.44,0.009
67.455,-0.071
67.47,-0.077
67.485,-0.006
67.5,0.01
67.515,0.028
67.53,0.006
67.545,-0.046
67.56,-0.06
67.575,-0.068
67.59,-0.022
67.605,0.027
67.62,-0.016
67.635,-0.021
67.65,0.029
67.665,0.052
67.68,0.013
67.695,-0.022
67.71,-0.022
67.725,-0.062
67.74,-0.064
67.755,-0.038
67.77,-0.045
67.785,-0.039
67.8,-0.038
67.815,-0.077
67.83,-0.048
67.845,-0.015
67.86,-0.031
67.875,0.023
67.89,0.02
67.905,-0.039
67.92,-0.03
67.935,0.002
67.95,-0.002
67.965,-0.058
67.98,-0.074
67.995,-0.049
68.01,-0.059
68.025,-0.029
68.04,-0.014
68.055,-0.033
68.07,-0.034
68.085,0.003
68.1,-0.011
68.115,0.018
68.13,-0.02
68.145,-0.047
68.16,-0.042
68.175,-0.036
68.19,0.003
68.205,-0.007
68.22,0.01
68.235,0.008
68.25,-0.005
68.265,-0.033
68.28,-0.052
68.295,-0.013
68.31,0.013
68.325,-0.052
68.34,-0.077
68.355,-0.048
68.37,-0.03
68.385,-0.023
68.4,-0.02
68.415,-0.043
68.43,-0.011
68.445,-0.023
68.46,-0.017
68.475,-0.006
68.49,-0.001
68.505,0.002
68.52,-0.062
68.535,-0.066
68.55,-0.077
68.565,-0.031
68.58,0
68.595,-0.017
68.61,-0.018
68.625,-0.025
68.64,-0.029
68.655,-0.032
68.67,-0.003
68.685,0
68.7,0.026
68.715,0.001
68.73,-0.008
68.745,-0.016
68.76,0.002
68.775,-0.001
68.79,-0.009
68.805,-0.029
68.82,-0.054
68.835,-0.016
68.85,0.008
68.865,0.035
68.88,0.009
68.895,0.007
68.91,0.039
68.925,-0.019
68.94,-0.068
68.955,-0.041
68.97,-0.026
68.985,0.036
69,0.06
69.015,0.049
69.03,0.017
69.045,0.019
69.06,0.043
69.075,0.059
69.09,0.042
69.105,-0.001
69.12,-0.002
69.135,-0.005
69.15,0.005
69.165,0.02
69.18,-0.015
69.195,-0.015
69.21,-0.01
69.225,-0.021
69.24,-0.022
69.255,-0.032
69.27,-0.017
69.285,0.013
69.3,0.015
69.315,0.024
69.33,0.021
69.345,-0.008
69.36,0.007
69.375,0.019
69.39,0.016
69.405,0.034
69.42,0.009
69.435,-0.014
69.45,0.022
69.465,0.016
69.48,-0.012
69.495,0.027
69.51,0.059
69.525,0.076
69.54,0.048
69.555,0.024
69.57,0.053
69.585,0.057
69.6,0.066
69.615,0.056
69.63,0.047
69.645,0.062
69.66,0.073
69.675,0.072
69.69,0.062
69.705,0.077
69.72,0.124
69.735,0.126
69.75,0.109
69.765,0.043
69.78,0.055
69.795,0.085
69.81,0.099
69.825,0.066
69.84,0.055
69.855,0.076
69.87,0.083
69.885,0.081
69.9,0.113
69.915,0.097
69.93,0.109
69.945,0.121
69.96,0.128
69.975,0.116
69.99,0.099
70.005,0.107
70.02,0.123
70.035,0.109
70.05,0.087
70.065,0.111
70.08,0.15
70.095,0.129
70.11,0.11
70.125,0.128
70.14,0.137
70.155,0.145
70.17,0.14
70.185,0.176
70.2,0.126
70.215,0.128
70.23,0.189
70.245,0.191
70.26,0.209
70.275,0.178
70.29,0.175
70.305,0.23
70.32,0.203
70.335,0.161
70.35,0.202
70.365,0.183
70.38,0.182
70.395,0.212
70.41,0.205
70.425,0.178
70.44,0.178
70.455,0.184
70.47,0.184
70.485,0.221
70.5,0.22
70.515,0.176
70.53,0.203
70.545,0.232
70.56,0.224
70.575,0.271
70.59,0.226
70.605,0.218
70.62,0.224
70.635,0.226
70.65,0.199
70.665,0.201
70.68,0.255
70.695,0.29
70.71,0.279
70.725,0.319
70.74,0.332
70.755,0.327
70.77,0.292
70.785,0.324
70.8,0.282
70.815,0.272
70.83,0.315
70.845,0.273
70.86,0.237
70.875,0.261
70.89,0.283
70.905,0.328
70.92,0.309
70.935,0.319
70.95,0.343
70.965,0.338
70.98,0.332
70.995,0.363
71.01,0.354
71.025,0.372
71.04,0.395
71.055,0.365
71.07,0.342
71.085,0.324
71.1,0.322
71.115,0.34
71.13,0.389
71.145,0.366
71.16,0.406
71.175,0.402
71.19,0.406
71.205,0.383
71.22,0.422
71.235,0.476
71.25,0.451
71.265,0.427
71.28,0.409
71.295,0.395
71.31,0.432
71.325,0.475
71.34,0.497
71.355,0.508
71.37,0.507
71.385,0.468
71.4,0.45
71.415,0.489
71.43,0.49
71.445,0.511
71.46,0.543
71.475,0.506
71.49,0.456
71.505,0.497
71.52,0.51
71.535,0.464
71.55,0.501
71.565,0.537
71.58,0.545
71.595,0.562
71.61,0.529
71.625,0.54
71.64,0.534
71.655,0.538
71.67,0.568
71.685,0.578
71.7,0.552
71.715,0.536
71.73,0.545
71.745,0.581
71.76,0.595
71.775,0.563
71.79,0.589
71.805,0.603
71.82,0.581
71.835,0.632
71.85,0.67
71.865,0.649
71.88,0.651
71.895,0.679
71.91,0.66
71.925,0.664
71.94,0.722
71.955,0.757
71.97,0.766
71.985,0.726
72,0.745
72.015,0.766
72.03,0.745
72.045,0.737
72.06,0.73
72.075,0.756
72.09,0.787
72.105,0.758
72.12,0.765
72.135,0.783
72.15,0.804
72.165,0.815
72.18,0.815
72.195,0.801
72.21,0.847
72.225,0.913
72.24,0.872
72.255,0.872
72.27,0.877
72.285,0.847
72.3,0.867
72.315,0.91
72.33,0.951
72.345,0.933
72.36,0.913
72.375,0.904
72.39,0.888
72.405,0.946
72.42,0.987
72.435,1.018
72.45,1.04
72.465,1.006
72.48,1.007
72.495,0.981
72.51,1.022
72.525,1.063
72.54,1.067
72.555,1.109
72.57,1.112
72.585,1.082
72.6,1.094
72.615,1.1
72.63,1.12
72.645,1.117
72.66,1.141
72.675,1.133
72.69,1.129
72.705,1.15
72.72,1.204
72.735,1.21
72.75,1.203
72.765,1.242
72.78,1.222
72.795,1.209
72.81,1.249
72.825,1.221
72.84,1.219
72.855,1.27
72.87,1.298
72.885,1.283
72.9,1.217
72.915,1.245
72.93,1.303
72.945,1.326
72.96,1.355
72.975,1.34
72.99,1.301
73.005,1.336
73.02,1.337
73.035,1.353
73.05,1.373
73.065,1.388
73.08,1.411
73.095,1.431
73.11,1.469
73.125,1.435
73.14,1.433
73.155,1.441
73.17,1.461
73.185,1.462
73.2,1.468
73.215,1.482
73.23,1.506
73.245,1.52
73.26,1.513
73.275,1.498
73.29,1.493
73.305,1.506
73.32,1.498
73.335,1.537
73.35,1.549
73.365,1.557
73.38,1.573
73.395,1.542
73.41,1.559
73.425,1.589
73.44,1.628
73.455,1.652
73.47,1.639
73.485,1.571
73.5,1.556
73.515,1.587
73.53,1.621
73.545,1.656
73.56,1.65
73.575,1.673
73.59,1.669
73.605,1.68
73.62,1.677
73.635,1.683
73.65,1.687
73.665,1.663
73.68,1.718
73.695,1.729
73.71,1.713
73.725,1.724
73.74,1.743
73.755,1.754
73.77,1.776
73.785,1.801
73.8,1.806
73.815,1.817
73.83,1.821
73.845,1.814
73.86,1.855
73.875,1.865
73.89,1.865
73.905,1.855
73.92,1.841
73.935,1.895
73.95,1.943
73.965,1.879
73.98,1.904
73.995,1.924
74.01,1.877
74.025,1.914
74.04,1.929
74.055,1.981
74.07,2.014
74.085,1.993
74.1,1.994
74.115,1.983
74.13,2.02
74.145,1.992
74.16,1.998
74.175,2.054
74.19,2.057
74.205,2.066
74.22,2.096
74.235,2.12
74.25,2.074
74.265,2.055
74.28,2.09
74.295,2.123
74.31,2.142
74.325,2.173
74.34,2.123
74.355,2.097
74.37,2.138
74.385,2.17
74.4,2.175
74.415,2.185
74.43,2.21
74.445,2.182
74.46,2.169
74.475,2.206
74.49,2.195
74.505,2.187
74.52,2.217
74.535,2.21
74.55,2.202
74.565,2.229
74.58,2.241
74.595,2.216
74.61,2.245
74.625,2.279
74.64,2.294
74.655,2.285
74.67,2.282
74.685,2.339
74.7,2.332
74.715,2.301
74.73,2.255
74.745,2.28
74.76,2.328
74.775,2.338
74.79,2.336
74.805,2.33
74.82,2.32
74.835,2.348
74.85,2.383
74.865,2.406
74.88,2.451
74.895,2.426
74.91,2.41
74.925,2.441
74.94,2.392
74.955,2.386
74.97,2.409
74.985,2.411
75,2.376
75.015,2.248
75.03,2.169
75.045,2.127
75.06,2.05
75.075,1.989
75.09,1.885
75.105,1.903
75.12,1.938
75.135,1.929
75.15,1.802
75.165,1.752
75.18,1.704
75.195,1.62
75.21,1.574
75.225,1.587
75.24,1.593
75.255,1.511
75.27,1.506
75.285,1.43
75.3,1.465
75.315,1.341
75.33,1.098
75.345,0
